# Output Forward Model:       560.000-      829.995
# L.N. Fletcher Fri Feb 21 14:55:39 2020
Wavenumber [cm-1] | Radiance [W/cm2/sr/cm-1] | Brightess Temperature [K] | Surface Brightness [Jy/arcsec^2]
      560.000  2.25695e-07      117.922      176.950
      560.005  2.25690e-07      117.922      176.946
      560.010  2.25683e-07      117.922      176.941
      560.015  2.25675e-07      117.922      176.934
      560.020  2.25665e-07      117.922      176.927
      560.025  2.25655e-07      117.921      176.919
      560.030  2.25645e-07      117.921      176.911
      560.035  2.25635e-07      117.921      176.903
      560.040  2.25624e-07      117.921      176.895
      560.045  2.25614e-07      117.921      176.887
      560.050  2.25604e-07      117.920      176.879
      560.055  2.25593e-07      117.920      176.871
      560.060  2.25583e-07      117.920      176.863
      560.065  2.25573e-07      117.920      176.854
      560.070  2.25563e-07      117.920      176.846
      560.075  2.25552e-07      117.920      176.838
      560.080  2.25542e-07      117.919      176.830
      560.085  2.25532e-07      117.919      176.822
      560.090  2.25522e-07      117.919      176.814
      560.095  2.25511e-07      117.919      176.806
      560.100  2.25501e-07      117.919      176.798
      560.105  2.25491e-07      117.918      176.790
      560.110  2.25481e-07      117.918      176.782
      560.115  2.25470e-07      117.918      176.774
      560.120  2.25460e-07      117.918      176.766
      560.125  2.25450e-07      117.918      176.758
      560.130  2.25440e-07      117.917      176.750
      560.135  2.25429e-07      117.917      176.742
      560.140  2.25419e-07      117.917      176.734
      560.145  2.25409e-07      117.917      176.726
      560.150  2.25398e-07      117.917      176.718
      560.155  2.25388e-07      117.916      176.710
      560.160  2.25378e-07      117.916      176.702
      560.165  2.25368e-07      117.916      176.694
      560.170  2.25358e-07      117.916      176.686
      560.175  2.25347e-07      117.916      176.678
      560.180  2.25337e-07      117.915      176.670
      560.185  2.25327e-07      117.915      176.662
      560.190  2.25317e-07      117.915      176.653
      560.195  2.25306e-07      117.915      176.645
      560.200  2.25296e-07      117.915      176.637
      560.205  2.25286e-07      117.915      176.629
      560.210  2.25276e-07      117.914      176.621
      560.215  2.25265e-07      117.914      176.613
      560.220  2.25255e-07      117.914      176.605
      560.225  2.25245e-07      117.914      176.597
      560.230  2.25235e-07      117.914      176.589
      560.235  2.25225e-07      117.913      176.581
      560.240  2.25214e-07      117.913      176.573
      560.245  2.25204e-07      117.913      176.565
      560.250  2.25194e-07      117.913      176.557
      560.255  2.25184e-07      117.913      176.549
      560.260  2.25173e-07      117.912      176.541
      560.265  2.25163e-07      117.912      176.533
      560.270  2.25153e-07      117.912      176.525
      560.275  2.25143e-07      117.912      176.517
      560.280  2.25132e-07      117.912      176.509
      560.285  2.25122e-07      117.911      176.501
      560.290  2.25112e-07      117.911      176.493
      560.295  2.25102e-07      117.911      176.485
      560.300  2.25092e-07      117.911      176.477
      560.305  2.25081e-07      117.911      176.469
      560.310  2.25071e-07      117.910      176.461
      560.315  2.25061e-07      117.910      176.453
      560.320  2.25051e-07      117.910      176.445
      560.325  2.25040e-07      117.910      176.437
      560.330  2.25030e-07      117.910      176.429
      560.335  2.25020e-07      117.910      176.421
      560.340  2.25010e-07      117.909      176.413
      560.345  2.25000e-07      117.909      176.405
      560.350  2.24990e-07      117.909      176.397
      560.355  2.24979e-07      117.909      176.389
      560.360  2.24969e-07      117.909      176.381
      560.365  2.24959e-07      117.908      176.373
      560.370  2.24949e-07      117.908      176.365
      560.375  2.24938e-07      117.908      176.357
      560.380  2.24928e-07      117.908      176.349
      560.385  2.24918e-07      117.908      176.341
      560.390  2.24908e-07      117.907      176.333
      560.395  2.24898e-07      117.907      176.325
      560.400  2.24887e-07      117.907      176.317
      560.405  2.24877e-07      117.907      176.309
      560.410  2.24867e-07      117.907      176.301
      560.415  2.24857e-07      117.906      176.293
      560.420  2.24847e-07      117.906      176.285
      560.425  2.24836e-07      117.906      176.277
      560.430  2.24826e-07      117.906      176.269
      560.435  2.24816e-07      117.906      176.261
      560.440  2.24806e-07      117.906      176.253
      560.445  2.24796e-07      117.905      176.245
      560.450  2.24785e-07      117.905      176.237
      560.455  2.24775e-07      117.905      176.229
      560.460  2.24765e-07      117.905      176.221
      560.465  2.24755e-07      117.905      176.213
      560.470  2.24745e-07      117.904      176.205
      560.475  2.24735e-07      117.904      176.197
      560.480  2.24724e-07      117.904      176.189
      560.485  2.24714e-07      117.904      176.181
      560.490  2.24704e-07      117.904      176.173
      560.495  2.24694e-07      117.903      176.165
      560.500  2.24684e-07      117.903      176.157
      560.505  2.24673e-07      117.903      176.149
      560.510  2.24663e-07      117.903      176.141
      560.515  2.24653e-07      117.903      176.133
      560.520  2.24643e-07      117.903      176.125
      560.525  2.24633e-07      117.902      176.117
      560.530  2.24622e-07      117.902      176.109
      560.535  2.24612e-07      117.902      176.101
      560.540  2.24602e-07      117.902      176.093
      560.545  2.24592e-07      117.902      176.085
      560.550  2.24582e-07      117.901      176.077
      560.555  2.24572e-07      117.901      176.070
      560.560  2.24561e-07      117.901      176.061
      560.565  2.24551e-07      117.901      176.053
      560.570  2.24541e-07      117.901      176.045
      560.575  2.24531e-07      117.900      176.037
      560.580  2.24521e-07      117.900      176.030
      560.585  2.24511e-07      117.900      176.022
      560.590  2.24500e-07      117.900      176.014
      560.595  2.24490e-07      117.900      176.006
      560.600  2.24480e-07      117.899      175.998
      560.605  2.24470e-07      117.899      175.990
      560.610  2.24460e-07      117.899      175.982
      560.615  2.24450e-07      117.899      175.974
      560.620  2.24440e-07      117.899      175.966
      560.625  2.24429e-07      117.899      175.958
      560.630  2.24419e-07      117.898      175.950
      560.635  2.24409e-07      117.898      175.942
      560.640  2.24399e-07      117.898      175.934
      560.645  2.24389e-07      117.898      175.926
      560.650  2.24379e-07      117.898      175.918
      560.655  2.24368e-07      117.897      175.910
      560.660  2.24358e-07      117.897      175.902
      560.665  2.24348e-07      117.897      175.894
      560.670  2.24338e-07      117.897      175.886
      560.675  2.24328e-07      117.897      175.878
      560.680  2.24318e-07      117.896      175.870
      560.685  2.24308e-07      117.896      175.862
      560.690  2.24297e-07      117.896      175.854
      560.695  2.24287e-07      117.896      175.846
      560.700  2.24277e-07      117.896      175.838
      560.705  2.24267e-07      117.896      175.831
      560.710  2.24257e-07      117.895      175.823
      560.715  2.24247e-07      117.895      175.815
      560.720  2.24237e-07      117.895      175.807
      560.725  2.24227e-07      117.895      175.799
      560.730  2.24216e-07      117.895      175.791
      560.735  2.24206e-07      117.894      175.783
      560.740  2.24196e-07      117.894      175.775
      560.745  2.24186e-07      117.894      175.767
      560.750  2.24176e-07      117.894      175.759
      560.755  2.24166e-07      117.894      175.751
      560.760  2.24155e-07      117.893      175.743
      560.765  2.24145e-07      117.893      175.735
      560.770  2.24135e-07      117.893      175.727
      560.775  2.24125e-07      117.893      175.719
      560.780  2.24115e-07      117.893      175.711
      560.785  2.24105e-07      117.893      175.703
      560.790  2.24095e-07      117.892      175.696
      560.795  2.24085e-07      117.892      175.688
      560.800  2.24074e-07      117.892      175.680
      560.805  2.24064e-07      117.892      175.672
      560.810  2.24054e-07      117.892      175.664
      560.815  2.24044e-07      117.891      175.656
      560.820  2.24034e-07      117.891      175.648
      560.825  2.24024e-07      117.891      175.640
      560.830  2.24014e-07      117.891      175.632
      560.835  2.24004e-07      117.891      175.624
      560.840  2.23993e-07      117.890      175.616
      560.845  2.23983e-07      117.890      175.608
      560.850  2.23973e-07      117.890      175.600
      560.855  2.23963e-07      117.890      175.592
      560.860  2.23953e-07      117.890      175.584
      560.865  2.23943e-07      117.890      175.576
      560.870  2.23933e-07      117.889      175.568
      560.875  2.23923e-07      117.889      175.561
      560.880  2.23912e-07      117.889      175.553
      560.885  2.23902e-07      117.889      175.545
      560.890  2.23892e-07      117.889      175.537
      560.895  2.23882e-07      117.888      175.529
      560.900  2.23872e-07      117.888      175.521
      560.905  2.23862e-07      117.888      175.513
      560.910  2.23852e-07      117.888      175.505
      560.915  2.23842e-07      117.888      175.497
      560.920  2.23832e-07      117.888      175.489
      560.925  2.23822e-07      117.887      175.481
      560.930  2.23811e-07      117.887      175.473
      560.935  2.23801e-07      117.887      175.465
      560.940  2.23791e-07      117.887      175.458
      560.945  2.23781e-07      117.887      175.450
      560.950  2.23771e-07      117.886      175.442
      560.955  2.23761e-07      117.886      175.434
      560.960  2.23751e-07      117.886      175.426
      560.965  2.23741e-07      117.886      175.418
      560.970  2.23731e-07      117.886      175.410
      560.975  2.23721e-07      117.885      175.402
      560.980  2.23711e-07      117.885      175.394
      560.985  2.23700e-07      117.885      175.386
      560.990  2.23690e-07      117.885      175.378
      560.995  2.23680e-07      117.885      175.370
      561.000  2.23670e-07      117.885      175.363
      561.005  2.23660e-07      117.884      175.355
      561.010  2.23650e-07      117.884      175.347
      561.015  2.23639e-07      117.884      175.338
      561.020  2.23629e-07      117.884      175.330
      561.025  2.23619e-07      117.884      175.322
      561.030  2.23609e-07      117.883      175.314
      561.035  2.23599e-07      117.883      175.306
      561.040  2.23588e-07      117.883      175.298
      561.045  2.23578e-07      117.883      175.290
      561.050  2.23568e-07      117.883      175.282
      561.055  2.23558e-07      117.882      175.274
      561.060  2.23547e-07      117.882      175.266
      561.065  2.23537e-07      117.882      175.258
      561.070  2.23527e-07      117.882      175.250
      561.075  2.23517e-07      117.882      175.242
      561.080  2.23506e-07      117.881      175.234
      561.085  2.23496e-07      117.881      175.226
      561.090  2.23486e-07      117.881      175.218
      561.095  2.23476e-07      117.881      175.210
      561.100  2.23466e-07      117.881      175.202
      561.105  2.23455e-07      117.880      175.194
      561.110  2.23445e-07      117.880      175.186
      561.115  2.23435e-07      117.880      175.178
      561.120  2.23425e-07      117.880      175.170
      561.125  2.23414e-07      117.880      175.162
      561.130  2.23404e-07      117.879      175.154
      561.135  2.23394e-07      117.879      175.146
      561.140  2.23384e-07      117.879      175.138
      561.145  2.23373e-07      117.879      175.130
      561.150  2.23363e-07      117.879      175.122
      561.155  2.23353e-07      117.878      175.114
      561.160  2.23343e-07      117.878      175.106
      561.165  2.23333e-07      117.878      175.098
      561.170  2.23322e-07      117.878      175.090
      561.175  2.23312e-07      117.878      175.082
      561.180  2.23302e-07      117.877      175.074
      561.185  2.23292e-07      117.877      175.066
      561.190  2.23282e-07      117.877      175.058
      561.195  2.23271e-07      117.877      175.050
      561.200  2.23261e-07      117.877      175.042
      561.205  2.23251e-07      117.877      175.034
      561.210  2.23241e-07      117.876      175.026
      561.215  2.23231e-07      117.876      175.018
      561.220  2.23221e-07      117.876      175.010
      561.225  2.23210e-07      117.876      175.002
      561.230  2.23200e-07      117.876      174.994
      561.235  2.23190e-07      117.875      174.986
      561.240  2.23180e-07      117.875      174.978
      561.245  2.23169e-07      117.875      174.970
      561.250  2.23159e-07      117.875      174.962
      561.255  2.23149e-07      117.875      174.954
      561.260  2.23139e-07      117.874      174.946
      561.265  2.23129e-07      117.874      174.938
      561.270  2.23118e-07      117.874      174.930
      561.275  2.23108e-07      117.874      174.922
      561.280  2.23098e-07      117.874      174.914
      561.285  2.23088e-07      117.873      174.906
      561.290  2.23078e-07      117.873      174.898
      561.295  2.23068e-07      117.873      174.890
      561.300  2.23057e-07      117.873      174.882
      561.305  2.23047e-07      117.873      174.874
      561.310  2.23037e-07      117.872      174.866
      561.315  2.23027e-07      117.872      174.858
      561.320  2.23017e-07      117.872      174.850
      561.325  2.23006e-07      117.872      174.842
      561.330  2.22996e-07      117.872      174.834
      561.335  2.22986e-07      117.871      174.826
      561.340  2.22976e-07      117.871      174.818
      561.345  2.22966e-07      117.871      174.810
      561.350  2.22956e-07      117.871      174.802
      561.355  2.22945e-07      117.871      174.794
      561.360  2.22935e-07      117.871      174.786
      561.365  2.22925e-07      117.870      174.778
      561.370  2.22915e-07      117.870      174.771
      561.375  2.22905e-07      117.870      174.762
      561.380  2.22894e-07      117.870      174.755
      561.385  2.22884e-07      117.870      174.747
      561.390  2.22874e-07      117.869      174.739
      561.395  2.22864e-07      117.869      174.731
      561.400  2.22854e-07      117.869      174.723
      561.405  2.22844e-07      117.869      174.715
      561.410  2.22834e-07      117.869      174.707
      561.415  2.22823e-07      117.868      174.699
      561.420  2.22813e-07      117.868      174.691
      561.425  2.22803e-07      117.868      174.683
      561.430  2.22793e-07      117.868      174.675
      561.435  2.22783e-07      117.868      174.667
      561.440  2.22773e-07      117.867      174.659
      561.445  2.22762e-07      117.867      174.651
      561.450  2.22752e-07      117.867      174.643
      561.455  2.22742e-07      117.867      174.635
      561.460  2.22732e-07      117.867      174.627
      561.465  2.22722e-07      117.866      174.619
      561.470  2.22712e-07      117.866      174.611
      561.475  2.22702e-07      117.866      174.603
      561.480  2.22691e-07      117.866      174.595
      561.485  2.22681e-07      117.866      174.587
      561.490  2.22671e-07      117.865      174.579
      561.495  2.22661e-07      117.865      174.571
      561.500  2.22651e-07      117.865      174.563
      561.505  2.22641e-07      117.865      174.555
      561.510  2.22631e-07      117.865      174.548
      561.515  2.22620e-07      117.865      174.540
      561.520  2.22610e-07      117.864      174.532
      561.525  2.22600e-07      117.864      174.524
      561.530  2.22590e-07      117.864      174.516
      561.535  2.22580e-07      117.864      174.508
      561.540  2.22570e-07      117.864      174.500
      561.545  2.22560e-07      117.863      174.492
      561.550  2.22549e-07      117.863      174.484
      561.555  2.22539e-07      117.863      174.476
      561.560  2.22529e-07      117.863      174.468
      561.565  2.22519e-07      117.863      174.460
      561.570  2.22509e-07      117.862      174.452
      561.575  2.22499e-07      117.862      174.444
      561.580  2.22489e-07      117.862      174.436
      561.585  2.22478e-07      117.862      174.428
      561.590  2.22468e-07      117.862      174.420
      561.595  2.22458e-07      117.861      174.413
      561.600  2.22448e-07      117.861      174.405
      561.605  2.22438e-07      117.861      174.397
      561.610  2.22428e-07      117.861      174.389
      561.615  2.22418e-07      117.861      174.381
      561.620  2.22408e-07      117.861      174.373
      561.625  2.22398e-07      117.860      174.365
      561.630  2.22387e-07      117.860      174.357
      561.635  2.22377e-07      117.860      174.349
      561.640  2.22367e-07      117.860      174.341
      561.645  2.22357e-07      117.860      174.333
      561.650  2.22347e-07      117.859      174.325
      561.655  2.22337e-07      117.859      174.317
      561.660  2.22327e-07      117.859      174.309
      561.665  2.22317e-07      117.859      174.301
      561.670  2.22307e-07      117.859      174.294
      561.675  2.22296e-07      117.858      174.286
      561.680  2.22286e-07      117.858      174.278
      561.685  2.22276e-07      117.858      174.270
      561.690  2.22266e-07      117.858      174.262
      561.695  2.22256e-07      117.858      174.254
      561.700  2.22246e-07      117.857      174.246
      561.705  2.22236e-07      117.857      174.238
      561.710  2.22226e-07      117.857      174.230
      561.715  2.22215e-07      117.857      174.222
      561.720  2.22206e-07      117.857      174.214
      561.725  2.22195e-07      117.857      174.206
      561.730  2.22185e-07      117.856      174.198
      561.735  2.22175e-07      117.856      174.191
      561.740  2.22165e-07      117.856      174.183
      561.745  2.22155e-07      117.856      174.175
      561.750  2.22145e-07      117.856      174.167
      561.755  2.22135e-07      117.855      174.159
      561.760  2.22125e-07      117.855      174.151
      561.765  2.22114e-07      117.855      174.143
      561.770  2.22104e-07      117.855      174.135
      561.775  2.22094e-07      117.855      174.127
      561.780  2.22084e-07      117.854      174.119
      561.785  2.22074e-07      117.854      174.111
      561.790  2.22064e-07      117.854      174.103
      561.795  2.22054e-07      117.854      174.096
      561.800  2.22044e-07      117.854      174.088
      561.805  2.22034e-07      117.853      174.080
      561.810  2.22024e-07      117.853      174.072
      561.815  2.22014e-07      117.853      174.064
      561.820  2.22004e-07      117.853      174.056
      561.825  2.21993e-07      117.853      174.048
      561.830  2.21983e-07      117.853      174.040
      561.835  2.21973e-07      117.852      174.032
      561.840  2.21963e-07      117.852      174.024
      561.845  2.21953e-07      117.852      174.017
      561.850  2.21943e-07      117.852      174.009
      561.855  2.21933e-07      117.852      174.001
      561.860  2.21923e-07      117.851      173.993
