# Output Forward Model:       270.000-      569.990
# L.N. Fletcher Fri Feb 21 15:31:06 2020
Wavenumber [cm-1] | Radiance [W/cm2/sr/cm-1] | Brightess Temperature [K] | Surface Brightness [Jy/arcsec^2]
      270.000  1.39397e-06      134.880      1092.90
      270.010  1.39391e-06      134.878      1092.86
      270.020  1.39384e-06      134.876      1092.80
      270.030  1.39374e-06      134.873      1092.73
      270.040  1.39362e-06      134.869      1092.63
      270.050  1.39348e-06      134.865      1092.52
      270.060  1.39330e-06      134.859      1092.38
      270.070  1.39309e-06      134.853      1092.22
      270.080  1.39286e-06      134.845      1092.03
      270.090  1.39259e-06      134.837      1091.83
      270.100  1.39231e-06      134.828      1091.61
      270.110  1.39202e-06      134.819      1091.38
      270.120  1.39173e-06      134.810      1091.15
      270.130  1.39145e-06      134.801      1090.93
      270.140  1.39119e-06      134.793      1090.73
      270.150  1.39097e-06      134.786      1090.55
      270.160  1.39078e-06      134.780      1090.40
      270.170  1.39063e-06      134.776      1090.29
      270.180  1.39054e-06      134.773      1090.21
      270.190  1.39048e-06      134.771      1090.17
      270.200  1.39047e-06      134.771      1090.16
      270.210  1.39049e-06      134.771      1090.18
      270.220  1.39054e-06      134.773      1090.22
      270.230  1.39062e-06      134.776      1090.28
      270.240  1.39071e-06      134.779      1090.35
      270.250  1.39081e-06      134.782      1090.43
      270.260  1.39092e-06      134.785      1090.51
      270.270  1.39103e-06      134.789      1090.60
      270.280  1.39114e-06      134.792      1090.68
      270.290  1.39124e-06      134.796      1090.76
      270.300  1.39134e-06      134.799      1090.84
      270.310  1.39142e-06      134.802      1090.91
      270.320  1.39150e-06      134.804      1090.97
      270.330  1.39155e-06      134.806      1091.01
      270.340  1.39159e-06      134.807      1091.04
      270.350  1.39159e-06      134.808      1091.04
      270.360  1.39157e-06      134.807      1091.02
      270.370  1.39150e-06      134.805      1090.97
      270.380  1.39140e-06      134.802      1090.89
      270.390  1.39126e-06      134.797      1090.78
      270.400  1.39108e-06      134.792      1090.64
      270.410  1.39085e-06      134.785      1090.46
      270.420  1.39060e-06      134.777      1090.26
      270.430  1.39031e-06      134.768      1090.04
      270.440  1.39001e-06      134.758      1089.80
      270.450  1.38971e-06      134.749      1089.57
      270.460  1.38942e-06      134.740      1089.33
      270.470  1.38914e-06      134.731      1089.12
      270.480  1.38890e-06      134.723      1088.93
      270.490  1.38870e-06      134.717      1088.78
      270.500  1.38856e-06      134.713      1088.67
      270.510  1.38848e-06      134.710      1088.60
      270.520  1.38845e-06      134.710      1088.58
      270.530  1.38848e-06      134.711      1088.60
      270.540  1.38856e-06      134.713      1088.66
      270.550  1.38867e-06      134.717      1088.75
      270.560  1.38881e-06      134.722      1088.86
      270.570  1.38897e-06      134.727      1088.99
      270.580  1.38913e-06      134.732      1089.11
      270.590  1.38929e-06      134.737      1089.23
      270.600  1.38942e-06      134.741      1089.34
      270.610  1.38953e-06      134.745      1089.43
      270.620  1.38961e-06      134.747      1089.49
      270.630  1.38966e-06      134.749      1089.52
      270.640  1.38967e-06      134.749      1089.53
      270.650  1.38964e-06      134.748      1089.51
      270.660  1.38957e-06      134.747      1089.46
      270.670  1.38947e-06      134.744      1089.38
      270.680  1.38935e-06      134.740      1089.28
      270.690  1.38919e-06      134.735      1089.16
      270.700  1.38902e-06      134.729      1089.02
      270.710  1.38883e-06      134.723      1088.88
      270.720  1.38863e-06      134.717      1088.72
      270.730  1.38842e-06      134.711      1088.55
      270.740  1.38820e-06      134.704      1088.38
      270.750  1.38798e-06      134.697      1088.21
      270.760  1.38775e-06      134.690      1088.03
      270.770  1.38753e-06      134.683      1087.85
      270.780  1.38729e-06      134.676      1087.67
      270.790  1.38706e-06      134.668      1087.48
      270.800  1.38681e-06      134.660      1087.29
      270.810  1.38656e-06      134.653      1087.10
      270.820  1.38631e-06      134.645      1086.90
      270.830  1.38606e-06      134.637      1086.71
      270.840  1.38582e-06      134.629      1086.52
      270.850  1.38559e-06      134.622      1086.34
      270.860  1.38539e-06      134.616      1086.18
      270.870  1.38522e-06      134.611      1086.04
      270.880  1.38508e-06      134.606      1085.93
      270.890  1.38499e-06      134.604      1085.86
      270.900  1.38495e-06      134.602      1085.83
      270.910  1.38495e-06      134.602      1085.83
      270.920  1.38499e-06      134.604      1085.87
      270.930  1.38508e-06      134.607      1085.93
      270.940  1.38519e-06      134.610      1086.02
      270.950  1.38532e-06      134.615      1086.13
      270.960  1.38546e-06      134.619      1086.24
      270.970  1.38560e-06      134.624      1086.35
      270.980  1.38573e-06      134.628      1086.45
      270.990  1.38584e-06      134.632      1086.53
      271.000  1.38593e-06      134.635      1086.60
      271.010  1.38599e-06      134.637      1086.65
      271.020  1.38603e-06      134.638      1086.68
      271.030  1.38604e-06      134.638      1086.69
      271.040  1.38603e-06      134.638      1086.68
      271.050  1.38600e-06      134.637      1086.65
      271.060  1.38595e-06      134.636      1086.62
      271.070  1.38590e-06      134.634      1086.58
      271.080  1.38585e-06      134.633      1086.54
      271.090  1.38580e-06      134.631      1086.50
      271.100  1.38576e-06      134.630      1086.47
      271.110  1.38572e-06      134.629      1086.44
      271.120  1.38569e-06      134.628      1086.42
      271.130  1.38567e-06      134.628      1086.40
      271.140  1.38565e-06      134.627      1086.39
      271.150  1.38564e-06      134.627      1086.37
      271.160  1.38562e-06      134.626      1086.36
      271.170  1.38559e-06      134.626      1086.33
      271.180  1.38555e-06      134.624      1086.30
      271.190  1.38549e-06      134.623      1086.25
      271.200  1.38541e-06      134.620      1086.19
      271.210  1.38531e-06      134.617      1086.12
      271.220  1.38519e-06      134.613      1086.02
      271.230  1.38504e-06      134.609      1085.91
      271.240  1.38487e-06      134.604      1085.77
      271.250  1.38469e-06      134.598      1085.63
      271.260  1.38448e-06      134.592      1085.47
      271.270  1.38427e-06      134.585      1085.30
      271.280  1.38404e-06      134.578      1085.12
      271.290  1.38382e-06      134.571      1084.95
      271.300  1.38360e-06      134.564      1084.77
      271.310  1.38339e-06      134.557      1084.61
      271.320  1.38319e-06      134.551      1084.45
      271.330  1.38301e-06      134.546      1084.31
      271.340  1.38285e-06      134.541      1084.19
      271.350  1.38271e-06      134.536      1084.07
      271.360  1.38258e-06      134.532      1083.98
      271.370  1.38247e-06      134.529      1083.89
      271.380  1.38236e-06      134.526      1083.81
      271.390  1.38226e-06      134.523      1083.73
      271.400  1.38216e-06      134.519      1083.64
      271.410  1.38204e-06      134.516      1083.55
      271.420  1.38191e-06      134.512      1083.45
      271.430  1.38176e-06      134.507      1083.33
      271.440  1.38158e-06      134.502      1083.19
      271.450  1.38139e-06      134.496      1083.04
      271.460  1.38119e-06      134.489      1082.88
      271.470  1.38097e-06      134.483      1082.71
      271.480  1.38075e-06      134.476      1082.54
      271.490  1.38054e-06      134.469      1082.38
      271.500  1.38035e-06      134.463      1082.23
      271.510  1.38018e-06      134.458      1082.10
      271.520  1.38006e-06      134.454      1082.00
      271.530  1.37997e-06      134.452      1081.93
      271.540  1.37993e-06      134.451      1081.90
      271.550  1.37995e-06      134.451      1081.91
      271.560  1.38000e-06      134.453      1081.95
      271.570  1.38010e-06      134.456      1082.03
      271.580  1.38023e-06      134.460      1082.13
      271.590  1.38038e-06      134.465      1082.25
      271.600  1.38054e-06      134.471      1082.38
      271.610  1.38071e-06      134.476      1082.51
      271.620  1.38087e-06      134.481      1082.64
      271.630  1.38102e-06      134.486      1082.75
      271.640  1.38115e-06      134.490      1082.85
      271.650  1.38125e-06      134.494      1082.93
      271.660  1.38132e-06      134.496      1082.98
      271.670  1.38135e-06      134.497      1083.01
      271.680  1.38135e-06      134.497      1083.01
      271.690  1.38132e-06      134.496      1082.99
      271.700  1.38125e-06      134.494      1082.93
      271.710  1.38115e-06      134.491      1082.85
      271.720  1.38102e-06      134.487      1082.75
      271.730  1.38085e-06      134.482      1082.62
      271.740  1.38066e-06      134.476      1082.47
      271.750  1.38044e-06      134.469      1082.30
      271.760  1.38020e-06      134.462      1082.11
      271.770  1.37995e-06      134.454      1081.91
      271.780  1.37968e-06      134.445      1081.70
      271.790  1.37940e-06      134.437      1081.49
      271.800  1.37913e-06      134.428      1081.27
      271.810  1.37887e-06      134.420      1081.06
      271.820  1.37862e-06      134.412      1080.87
      271.830  1.37839e-06      134.405      1080.69
      271.840  1.37819e-06      134.399      1080.53
      271.850  1.37802e-06      134.394      1080.40
      271.860  1.37788e-06      134.389      1080.29
      271.870  1.37777e-06      134.386      1080.21
      271.880  1.37770e-06      134.384      1080.15
      271.890  1.37765e-06      134.383      1080.11
      271.900  1.37763e-06      134.382      1080.09
      271.910  1.37762e-06      134.382      1080.09
      271.920  1.37762e-06      134.382      1080.09
      271.930  1.37763e-06      134.382      1080.09
      271.940  1.37763e-06      134.382      1080.09
      271.950  1.37762e-06      134.382      1080.09
      271.960  1.37760e-06      134.382      1080.07
      271.970  1.37756e-06      134.381      1080.04
      271.980  1.37751e-06      134.379      1080.00
      271.990  1.37745e-06      134.377      1079.95
      272.000  1.37737e-06      134.375      1079.89
      272.010  1.37730e-06      134.373      1079.83
      272.020  1.37722e-06      134.370      1079.77
      272.030  1.37714e-06      134.368      1079.71
      272.040  1.37708e-06      134.366      1079.67
      272.050  1.37704e-06      134.365      1079.63
      272.060  1.37701e-06      134.364      1079.61
      272.070  1.37700e-06      134.364      1079.60
      272.080  1.37701e-06      134.365      1079.60
      272.090  1.37703e-06      134.365      1079.62
      272.100  1.37707e-06      134.367      1079.65
      272.110  1.37712e-06      134.368      1079.69
      272.120  1.37717e-06      134.370      1079.73
      272.130  1.37722e-06      134.372      1079.77
      272.140  1.37726e-06      134.373      1079.81
      272.150  1.37730e-06      134.375      1079.83
      272.160  1.37731e-06      134.375      1079.84
      272.170  1.37731e-06      134.375      1079.84
      272.180  1.37729e-06      134.375      1079.82
      272.190  1.37723e-06      134.373      1079.78
      272.200  1.37716e-06      134.371      1079.72
      272.210  1.37705e-06      134.368      1079.64
      272.220  1.37692e-06      134.364      1079.54
      272.230  1.37675e-06      134.358      1079.41
      272.240  1.37655e-06      134.352      1079.25
      272.250  1.37632e-06      134.345      1079.07
      272.260  1.37605e-06      134.337      1078.86
      272.270  1.37575e-06      134.327      1078.62
      272.280  1.37541e-06      134.317      1078.35
      272.290  1.37502e-06      134.304      1078.05
      272.300  1.37460e-06      134.291      1077.71
      272.310  1.37412e-06      134.276      1077.35
      272.320  1.37361e-06      134.260      1076.94
      272.330  1.37306e-06      134.243      1076.51
      272.340  1.37246e-06      134.224      1076.04
      272.350  1.37183e-06      134.204      1075.55
      272.360  1.37118e-06      134.184      1075.04
      272.370  1.37051e-06      134.163      1074.51
      272.380  1.36984e-06      134.141      1073.99
      272.390  1.36918e-06      134.121      1073.47
      272.400  1.36856e-06      134.101      1072.98
      272.410  1.36798e-06      134.083      1072.53
      272.420  1.36747e-06      134.067      1072.13
      272.430  1.36705e-06      134.054      1071.80
      272.440  1.36672e-06      134.043      1071.54
      272.450  1.36650e-06      134.037      1071.37
      272.460  1.36639e-06      134.033      1071.28
      272.470  1.36639e-06      134.033      1071.28
      272.480  1.36649e-06      134.037      1071.36
      272.490  1.36668e-06      134.043      1071.51
      272.500  1.36694e-06      134.051      1071.71
      272.510  1.36726e-06      134.061      1071.96
      272.520  1.36761e-06      134.073      1072.24
      272.530  1.36798e-06      134.084      1072.52
      272.540  1.36834e-06      134.096      1072.81
      272.550  1.36868e-06      134.107      1073.08
      272.560  1.36900e-06      134.117      1073.33
      272.570  1.36928e-06      134.126      1073.54
      272.580  1.36951e-06      134.134      1073.73
      272.590  1.36970e-06      134.140      1073.88
      272.600  1.36985e-06      134.145      1073.99
      272.610  1.36996e-06      134.148      1074.08
      272.620  1.37004e-06      134.151      1074.14
      272.630  1.37009e-06      134.153      1074.19
      272.640  1.37014e-06      134.155      1074.22
      272.650  1.37018e-06      134.156      1074.25
      272.660  1.37023e-06      134.158      1074.29
      272.670  1.37028e-06      134.160      1074.33
      272.680  1.37036e-06      134.162      1074.39
      272.690  1.37045e-06      134.165      1074.47
      272.700  1.37056e-06      134.169      1074.55
      272.710  1.37070e-06      134.173      1074.66
      272.720  1.37085e-06      134.178      1074.78
      272.730  1.37101e-06      134.183      1074.90
      272.740  1.37118e-06      134.189      1075.03
      272.750  1.37134e-06      134.194      1075.17
      272.760  1.37151e-06      134.200      1075.30
      272.770  1.37167e-06      134.205      1075.42
      272.780  1.37181e-06      134.210      1075.53
      272.790  1.37193e-06      134.214      1075.63
      272.800  1.37204e-06      134.217      1075.71
      272.810  1.37212e-06      134.220      1075.77
      272.820  1.37218e-06      134.222      1075.82
      272.830  1.37221e-06      134.223      1075.84
      272.840  1.37222e-06      134.223      1075.85
      272.850  1.37220e-06      134.223      1075.84
      272.860  1.37216e-06      134.222      1075.81
      272.870  1.37209e-06      134.220      1075.75
      272.880  1.37200e-06      134.217      1075.68
      272.890  1.37188e-06      134.213      1075.59
      272.900  1.37173e-06      134.209      1075.47
      272.910  1.37156e-06      134.204      1075.34
      272.920  1.37136e-06      134.197      1075.18
      272.930  1.37113e-06      134.190      1075.00
      272.940  1.37086e-06      134.182      1074.79
      272.950  1.37057e-06      134.173      1074.56
      272.960  1.37024e-06      134.162      1074.30
      272.970  1.36987e-06      134.151      1074.01
      272.980  1.36946e-06      134.138      1073.69
      272.990  1.36902e-06      134.124      1073.34
      273.000  1.36854e-06      134.109      1072.97
      273.010  1.36803e-06      134.093      1072.57
      273.020  1.36749e-06      134.076      1072.14
      273.030  1.36693e-06      134.059      1071.70
      273.040  1.36635e-06      134.041      1071.25
      273.050  1.36578e-06      134.023      1070.80
      273.060  1.36522e-06      134.005      1070.36
      273.070  1.36468e-06      133.988      1069.94
      273.080  1.36419e-06      133.973      1069.56
      273.090  1.36375e-06      133.959      1069.21
      273.100  1.36338e-06      133.947      1068.92
      273.110  1.36309e-06      133.938      1068.70
      273.120  1.36289e-06      133.932      1068.54
      273.130  1.36277e-06      133.928      1068.44
      273.140  1.36273e-06      133.927      1068.41
      273.150  1.36277e-06      133.929      1068.44
      273.160  1.36287e-06      133.932      1068.52
      273.170  1.36301e-06      133.937      1068.63
      273.180  1.36319e-06      133.943      1068.77
      273.190  1.36338e-06      133.949      1068.92
      273.200  1.36357e-06      133.955      1069.07
      273.210  1.36373e-06      133.960      1069.20
      273.220  1.36386e-06      133.964      1069.30
      273.230  1.36394e-06      133.967      1069.36
      273.240  1.36396e-06      133.968      1069.38
      273.250  1.36392e-06      133.967      1069.35
      273.260  1.36381e-06      133.963      1069.26
      273.270  1.36363e-06      133.958      1069.12
      273.280  1.36338e-06      133.950      1068.92
      273.290  1.36307e-06      133.940      1068.68
      273.300  1.36270e-06      133.929      1068.39
      273.310  1.36228e-06      133.916      1068.06
      273.320  1.36183e-06      133.902      1067.70
      273.330  1.36136e-06      133.887      1067.34
      273.340  1.36089e-06      133.872      1066.97
      273.350  1.36044e-06      133.858      1066.62
      273.360  1.36004e-06      133.845      1066.30
      273.370  1.35969e-06      133.835      1066.03
      273.380  1.35942e-06      133.826      1065.82
      273.390  1.35924e-06      133.821      1065.67
      273.400  1.35916e-06      133.818      1065.61
      273.410  1.35917e-06      133.819      1065.62
      273.420  1.35929e-06      133.823      1065.72
      273.430  1.35951e-06      133.830      1065.88
      273.440  1.35980e-06      133.839      1066.11
      273.450  1.36016e-06      133.851      1066.40
      273.460  1.36057e-06      133.864      1066.72
      273.470  1.36101e-06      133.878      1067.07
      273.480  1.36147e-06      133.893      1067.43
      273.490  1.36193e-06      133.908      1067.79
      273.500  1.36238e-06      133.922      1068.13
      273.510  1.36280e-06      133.935      1068.46
      273.520  1.36318e-06      133.948      1068.76
      273.530  1.36353e-06      133.959      1069.04
      273.540  1.36383e-06      133.968      1069.27
      273.550  1.36409e-06      133.977      1069.47
      273.560  1.36430e-06      133.984      1069.64
      273.570  1.36446e-06      133.989      1069.77
      273.580  1.36458e-06      133.993      1069.87
      273.590  1.36466e-06      133.996      1069.93
      273.600  1.36470e-06      133.997      1069.95
      273.610  1.36469e-06      133.997      1069.95
      273.620  1.36464e-06      133.996      1069.91
      273.630  1.36455e-06      133.993      1069.84
      273.640  1.36443e-06      133.989      1069.74
      273.650  1.36426e-06      133.984      1069.61
      273.660  1.36404e-06      133.977      1069.44
      273.670  1.36378e-06      133.969      1069.24
      273.680  1.36348e-06      133.960      1069.00
      273.690  1.36313e-06      133.949      1068.72
      273.700  1.36272e-06      133.936      1068.41
      273.710  1.36227e-06      133.922      1068.05
      273.720  1.36176e-06      133.906      1067.65
