# Output Forward Model:       560.000-      829.995
# L.N. Fletcher Fri Feb 21 16:48:38 2020
Wavenumber [cm-1] | Radiance [W/cm2/sr/cm-1] | Brightess Temperature [K] | Surface Brightness [Jy/arcsec^2]
      560.000  3.34045e-08      92.1641      26.1899
      560.005  3.34037e-08      92.1644      26.1893
      560.010  3.34025e-08      92.1646      26.1884
      560.015  3.34011e-08      92.1646      26.1872
      560.020  3.33995e-08      92.1647      26.1860
      560.025  3.33977e-08      92.1647      26.1846
      560.030  3.33960e-08      92.1646      26.1832
      560.035  3.33943e-08      92.1646      26.1819
      560.040  3.33925e-08      92.1646      26.1805
      560.045  3.33908e-08      92.1646      26.1792
      560.050  3.33890e-08      92.1646      26.1778
      560.055  3.33873e-08      92.1646      26.1764
      560.060  3.33855e-08      92.1646      26.1750
      560.065  3.33838e-08      92.1646      26.1737
      560.070  3.33820e-08      92.1646      26.1723
      560.075  3.33803e-08      92.1646      26.1709
      560.080  3.33785e-08      92.1645      26.1696
      560.085  3.33768e-08      92.1645      26.1682
      560.090  3.33750e-08      92.1645      26.1668
      560.095  3.33733e-08      92.1645      26.1655
      560.100  3.33716e-08      92.1645      26.1641
      560.105  3.33698e-08      92.1645      26.1627
      560.110  3.33681e-08      92.1645      26.1614
      560.115  3.33663e-08      92.1645      26.1600
      560.120  3.33646e-08      92.1645      26.1586
      560.125  3.33628e-08      92.1645      26.1573
      560.130  3.33611e-08      92.1644      26.1559
      560.135  3.33594e-08      92.1644      26.1545
      560.140  3.33576e-08      92.1644      26.1532
      560.145  3.33559e-08      92.1644      26.1518
      560.150  3.33541e-08      92.1644      26.1504
      560.155  3.33524e-08      92.1644      26.1491
      560.160  3.33507e-08      92.1644      26.1477
      560.165  3.33489e-08      92.1644      26.1463
      560.170  3.33472e-08      92.1644      26.1450
      560.175  3.33454e-08      92.1644      26.1436
      560.180  3.33437e-08      92.1643      26.1422
      560.185  3.33419e-08      92.1643      26.1409
      560.190  3.33402e-08      92.1643      26.1395
      560.195  3.33385e-08      92.1643      26.1381
      560.200  3.33367e-08      92.1643      26.1368
      560.205  3.33350e-08      92.1643      26.1354
      560.210  3.33332e-08      92.1643      26.1340
      560.215  3.33315e-08      92.1643      26.1327
      560.220  3.33298e-08      92.1643      26.1313
      560.225  3.33280e-08      92.1643      26.1300
      560.230  3.33263e-08      92.1642      26.1286
      560.235  3.33246e-08      92.1642      26.1272
      560.240  3.33228e-08      92.1642      26.1259
      560.245  3.33211e-08      92.1642      26.1245
      560.250  3.33193e-08      92.1642      26.1231
      560.255  3.33176e-08      92.1642      26.1218
      560.260  3.33159e-08      92.1642      26.1204
      560.265  3.33141e-08      92.1642      26.1190
      560.270  3.33124e-08      92.1642      26.1177
      560.275  3.33106e-08      92.1642      26.1163
      560.280  3.33089e-08      92.1642      26.1150
      560.285  3.33072e-08      92.1641      26.1136
      560.290  3.33054e-08      92.1641      26.1123
      560.295  3.33037e-08      92.1641      26.1109
      560.300  3.33020e-08      92.1641      26.1095
      560.305  3.33002e-08      92.1641      26.1082
      560.310  3.32985e-08      92.1641      26.1068
      560.315  3.32967e-08      92.1641      26.1054
      560.320  3.32950e-08      92.1641      26.1041
      560.325  3.32933e-08      92.1641      26.1027
      560.330  3.32915e-08      92.1641      26.1013
      560.335  3.32898e-08      92.1641      26.1000
      560.340  3.32881e-08      92.1641      26.0986
      560.345  3.32864e-08      92.1640      26.0973
      560.350  3.32846e-08      92.1640      26.0959
      560.355  3.32829e-08      92.1640      26.0946
      560.360  3.32812e-08      92.1640      26.0932
      560.365  3.32794e-08      92.1640      26.0918
      560.370  3.32777e-08      92.1640      26.0905
      560.375  3.32759e-08      92.1640      26.0891
      560.380  3.32742e-08      92.1640      26.0878
      560.385  3.32725e-08      92.1640      26.0864
      560.390  3.32707e-08      92.1640      26.0850
      560.395  3.32690e-08      92.1640      26.0837
      560.400  3.32673e-08      92.1639      26.0823
      560.405  3.32655e-08      92.1639      26.0809
      560.410  3.32638e-08      92.1639      26.0796
      560.415  3.32621e-08      92.1639      26.0783
      560.420  3.32603e-08      92.1639      26.0769
      560.425  3.32586e-08      92.1639      26.0755
      560.430  3.32569e-08      92.1639      26.0742
      560.435  3.32551e-08      92.1639      26.0728
      560.440  3.32534e-08      92.1639      26.0714
      560.445  3.32517e-08      92.1639      26.0701
      560.450  3.32499e-08      92.1639      26.0687
      560.455  3.32482e-08      92.1639      26.0674
      560.460  3.32465e-08      92.1638      26.0660
      560.465  3.32447e-08      92.1638      26.0647
      560.470  3.32430e-08      92.1638      26.0633
      560.475  3.32413e-08      92.1638      26.0620
      560.480  3.32396e-08      92.1638      26.0606
      560.485  3.32378e-08      92.1638      26.0593
      560.490  3.32361e-08      92.1638      26.0579
      560.495  3.32344e-08      92.1638      26.0565
      560.500  3.32326e-08      92.1638      26.0552
      560.505  3.32309e-08      92.1638      26.0538
      560.510  3.32292e-08      92.1638      26.0525
      560.515  3.32275e-08      92.1638      26.0511
      560.520  3.32257e-08      92.1638      26.0497
      560.525  3.32240e-08      92.1637      26.0484
      560.530  3.32223e-08      92.1637      26.0470
      560.535  3.32206e-08      92.1637      26.0457
      560.540  3.32188e-08      92.1637      26.0443
      560.545  3.32171e-08      92.1637      26.0430
      560.550  3.32154e-08      92.1637      26.0416
      560.555  3.32136e-08      92.1637      26.0403
      560.560  3.32119e-08      92.1637      26.0389
      560.565  3.32102e-08      92.1637      26.0376
      560.570  3.32084e-08      92.1637      26.0362
      560.575  3.32067e-08      92.1637      26.0348
      560.580  3.32050e-08      92.1637      26.0335
      560.585  3.32033e-08      92.1637      26.0321
      560.590  3.32015e-08      92.1637      26.0308
      560.595  3.31998e-08      92.1637      26.0295
      560.600  3.31981e-08      92.1636      26.0281
      560.605  3.31964e-08      92.1636      26.0267
      560.610  3.31947e-08      92.1636      26.0254
      560.615  3.31929e-08      92.1636      26.0240
      560.620  3.31912e-08      92.1636      26.0227
      560.625  3.31895e-08      92.1636      26.0213
      560.630  3.31877e-08      92.1636      26.0200
      560.635  3.31860e-08      92.1636      26.0186
      560.640  3.31843e-08      92.1636      26.0173
      560.645  3.31826e-08      92.1636      26.0159
      560.650  3.31808e-08      92.1636      26.0145
      560.655  3.31791e-08      92.1636      26.0132
      560.660  3.31774e-08      92.1636      26.0119
      560.665  3.31757e-08      92.1636      26.0105
      560.670  3.31740e-08      92.1636      26.0092
      560.675  3.31722e-08      92.1635      26.0078
      560.680  3.31705e-08      92.1635      26.0065
      560.685  3.31688e-08      92.1635      26.0051
      560.690  3.31671e-08      92.1635      26.0037
      560.695  3.31653e-08      92.1635      26.0024
      560.700  3.31636e-08      92.1635      26.0010
      560.705  3.31619e-08      92.1635      25.9997
      560.710  3.31602e-08      92.1635      25.9984
      560.715  3.31585e-08      92.1635      25.9970
      560.720  3.31568e-08      92.1635      25.9957
      560.725  3.31550e-08      92.1635      25.9943
      560.730  3.31533e-08      92.1635      25.9930
      560.735  3.31516e-08      92.1635      25.9916
      560.740  3.31499e-08      92.1635      25.9903
      560.745  3.31481e-08      92.1635      25.9889
      560.750  3.31464e-08      92.1634      25.9876
      560.755  3.31447e-08      92.1634      25.9862
      560.760  3.31430e-08      92.1634      25.9849
      560.765  3.31412e-08      92.1634      25.9835
      560.770  3.31395e-08      92.1634      25.9822
      560.775  3.31378e-08      92.1634      25.9808
      560.780  3.31361e-08      92.1634      25.9795
      560.785  3.31344e-08      92.1634      25.9781
      560.790  3.31327e-08      92.1634      25.9768
      560.795  3.31309e-08      92.1634      25.9754
      560.800  3.31292e-08      92.1634      25.9741
      560.805  3.31275e-08      92.1634      25.9727
      560.810  3.31258e-08      92.1634      25.9714
      560.815  3.31241e-08      92.1634      25.9700
      560.820  3.31223e-08      92.1634      25.9687
      560.825  3.31206e-08      92.1634      25.9673
      560.830  3.31189e-08      92.1634      25.9660
      560.835  3.31172e-08      92.1633      25.9646
      560.840  3.31155e-08      92.1633      25.9633
      560.845  3.31138e-08      92.1633      25.9620
      560.850  3.31121e-08      92.1633      25.9606
      560.855  3.31103e-08      92.1633      25.9593
      560.860  3.31086e-08      92.1633      25.9579
      560.865  3.31069e-08      92.1633      25.9566
      560.870  3.31052e-08      92.1633      25.9552
      560.875  3.31035e-08      92.1633      25.9539
      560.880  3.31017e-08      92.1633      25.9525
      560.885  3.31000e-08      92.1633      25.9512
      560.890  3.30983e-08      92.1633      25.9498
      560.895  3.30966e-08      92.1633      25.9485
      560.900  3.30949e-08      92.1633      25.9472
      560.905  3.30932e-08      92.1633      25.9458
      560.910  3.30915e-08      92.1633      25.9445
      560.915  3.30898e-08      92.1633      25.9431
      560.920  3.30880e-08      92.1633      25.9418
      560.925  3.30863e-08      92.1633      25.9404
      560.930  3.30846e-08      92.1632      25.9391
      560.935  3.30829e-08      92.1632      25.9378
      560.940  3.30812e-08      92.1632      25.9364
      560.945  3.30794e-08      92.1632      25.9351
      560.950  3.30777e-08      92.1632      25.9337
      560.955  3.30760e-08      92.1632      25.9324
      560.960  3.30743e-08      92.1632      25.9310
      560.965  3.30726e-08      92.1632      25.9297
      560.970  3.30709e-08      92.1632      25.9284
      560.975  3.30692e-08      92.1632      25.9270
      560.980  3.30675e-08      92.1632      25.9257
      560.985  3.30658e-08      92.1632      25.9243
      560.990  3.30641e-08      92.1632      25.9230
      560.995  3.30623e-08      92.1632      25.9216
      561.000  3.30606e-08      92.1632      25.9203
      561.005  3.30589e-08      92.1632      25.9190
      561.010  3.30572e-08      92.1632      25.9176
      561.015  3.30554e-08      92.1632      25.9162
      561.020  3.30537e-08      92.1631      25.9149
      561.025  3.30520e-08      92.1631      25.9136
      561.030  3.30503e-08      92.1631      25.9122
      561.035  3.30486e-08      92.1631      25.9109
      561.040  3.30469e-08      92.1631      25.9095
      561.045  3.30452e-08      92.1631      25.9082
      561.050  3.30434e-08      92.1631      25.9068
      561.055  3.30417e-08      92.1631      25.9055
      561.060  3.30400e-08      92.1631      25.9041
      561.065  3.30383e-08      92.1631      25.9028
      561.070  3.30366e-08      92.1631      25.9014
      561.075  3.30348e-08      92.1631      25.9001
      561.080  3.30331e-08      92.1631      25.8987
      561.085  3.30314e-08      92.1631      25.8974
      561.090  3.30297e-08      92.1631      25.8961
      561.095  3.30280e-08      92.1631      25.8947
      561.100  3.30263e-08      92.1630      25.8934
      561.105  3.30246e-08      92.1630      25.8920
      561.110  3.30229e-08      92.1630      25.8907
      561.115  3.30211e-08      92.1630      25.8893
      561.120  3.30194e-08      92.1630      25.8880
      561.125  3.30177e-08      92.1630      25.8866
      561.130  3.30160e-08      92.1630      25.8853
      561.135  3.30143e-08      92.1630      25.8839
      561.140  3.30125e-08      92.1630      25.8826
      561.145  3.30108e-08      92.1630      25.8813
      561.150  3.30091e-08      92.1630      25.8799
      561.155  3.30074e-08      92.1630      25.8786
      561.160  3.30057e-08      92.1630      25.8773
      561.165  3.30040e-08      92.1630      25.8759
      561.170  3.30023e-08      92.1630      25.8746
      561.175  3.30006e-08      92.1629      25.8732
      561.180  3.29989e-08      92.1629      25.8719
      561.185  3.29971e-08      92.1629      25.8705
      561.190  3.29954e-08      92.1629      25.8692
      561.195  3.29937e-08      92.1629      25.8678
      561.200  3.29920e-08      92.1629      25.8665
      561.205  3.29903e-08      92.1629      25.8651
      561.210  3.29886e-08      92.1629      25.8638
      561.215  3.29869e-08      92.1629      25.8625
      561.220  3.29852e-08      92.1629      25.8611
      561.225  3.29835e-08      92.1629      25.8598
      561.230  3.29817e-08      92.1629      25.8585
      561.235  3.29800e-08      92.1629      25.8571
      561.240  3.29783e-08      92.1629      25.8558
      561.245  3.29766e-08      92.1629      25.8544
      561.250  3.29749e-08      92.1629      25.8531
      561.255  3.29732e-08      92.1629      25.8517
      561.260  3.29715e-08      92.1629      25.8504
      561.265  3.29698e-08      92.1628      25.8491
      561.270  3.29680e-08      92.1628      25.8477
      561.275  3.29663e-08      92.1628      25.8464
      561.280  3.29646e-08      92.1628      25.8450
      561.285  3.29630e-08      92.1628      25.8437
      561.290  3.29612e-08      92.1628      25.8424
      561.295  3.29595e-08      92.1628      25.8410
      561.300  3.29578e-08      92.1628      25.8397
      561.305  3.29561e-08      92.1628      25.8384
      561.310  3.29544e-08      92.1628      25.8370
      561.315  3.29527e-08      92.1628      25.8357
      561.320  3.29510e-08      92.1628      25.8343
      561.325  3.29493e-08      92.1628      25.8330
      561.330  3.29476e-08      92.1628      25.8317
      561.335  3.29458e-08      92.1628      25.8303
      561.340  3.29441e-08      92.1628      25.8290
      561.345  3.29425e-08      92.1628      25.8277
      561.350  3.29408e-08      92.1628      25.8263
      561.355  3.29391e-08      92.1628      25.8250
      561.360  3.29373e-08      92.1628      25.8236
      561.365  3.29356e-08      92.1628      25.8223
      561.370  3.29339e-08      92.1628      25.8210
      561.375  3.29322e-08      92.1628      25.8196
      561.380  3.29305e-08      92.1627      25.8183
      561.385  3.29288e-08      92.1627      25.8169
      561.390  3.29271e-08      92.1627      25.8156
      561.395  3.29254e-08      92.1627      25.8143
      561.400  3.29237e-08      92.1627      25.8129
      561.405  3.29220e-08      92.1627      25.8116
      561.410  3.29203e-08      92.1627      25.8103
      561.415  3.29186e-08      92.1627      25.8090
      561.420  3.29169e-08      92.1627      25.8076
      561.425  3.29152e-08      92.1627      25.8063
      561.430  3.29135e-08      92.1627      25.8049
      561.435  3.29118e-08      92.1627      25.8036
      561.440  3.29101e-08      92.1627      25.8023
      561.445  3.29084e-08      92.1627      25.8009
      561.450  3.29067e-08      92.1627      25.7996
      561.455  3.29050e-08      92.1627      25.7983
      561.460  3.29033e-08      92.1627      25.7969
      561.465  3.29016e-08      92.1627      25.7956
      561.470  3.28999e-08      92.1627      25.7943
      561.475  3.28982e-08      92.1627      25.7929
      561.480  3.28965e-08      92.1627      25.7916
      561.485  3.28948e-08      92.1627      25.7903
      561.490  3.28931e-08      92.1627      25.7889
      561.495  3.28914e-08      92.1627      25.7876
      561.500  3.28897e-08      92.1627      25.7863
      561.505  3.28880e-08      92.1627      25.7849
      561.510  3.28863e-08      92.1626      25.7836
      561.515  3.28846e-08      92.1626      25.7823
      561.520  3.28829e-08      92.1626      25.7809
      561.525  3.28812e-08      92.1626      25.7796
      561.530  3.28795e-08      92.1626      25.7783
      561.535  3.28778e-08      92.1626      25.7770
      561.540  3.28761e-08      92.1626      25.7756
      561.545  3.28744e-08      92.1626      25.7743
      561.550  3.28727e-08      92.1626      25.7730
      561.555  3.28710e-08      92.1626      25.7716
      561.560  3.28693e-08      92.1626      25.7703
      561.565  3.28676e-08      92.1626      25.7690
      561.570  3.28659e-08      92.1626      25.7676
      561.575  3.28642e-08      92.1626      25.7663
      561.580  3.28625e-08      92.1626      25.7650
      561.585  3.28608e-08      92.1626      25.7636
      561.590  3.28591e-08      92.1626      25.7623
      561.595  3.28574e-08      92.1626      25.7610
      561.600  3.28557e-08      92.1626      25.7597
      561.605  3.28540e-08      92.1626      25.7583
      561.610  3.28523e-08      92.1626      25.7570
      561.615  3.28506e-08      92.1626      25.7557
      561.620  3.28489e-08      92.1626      25.7543
      561.625  3.28472e-08      92.1626      25.7530
      561.630  3.28455e-08      92.1626      25.7517
      561.635  3.28438e-08      92.1626      25.7503
      561.640  3.28421e-08      92.1626      25.7490
      561.645  3.28404e-08      92.1626      25.7477
      561.650  3.28388e-08      92.1626      25.7464
      561.655  3.28371e-08      92.1626      25.7450
      561.660  3.28354e-08      92.1626      25.7437
      561.665  3.28337e-08      92.1626      25.7424
      561.670  3.28320e-08      92.1626      25.7411
      561.675  3.28303e-08      92.1626      25.7397
      561.680  3.28286e-08      92.1626      25.7384
      561.685  3.28269e-08      92.1626      25.7371
      561.690  3.28252e-08      92.1626      25.7357
      561.695  3.28235e-08      92.1626      25.7344
      561.700  3.28218e-08      92.1626      25.7331
      561.705  3.28201e-08      92.1626      25.7318
      561.710  3.28185e-08      92.1625      25.7304
      561.715  3.28168e-08      92.1626      25.7291
      561.720  3.28151e-08      92.1625      25.7278
      561.725  3.28134e-08      92.1625      25.7265
      561.730  3.28117e-08      92.1625      25.7252
      561.735  3.28100e-08      92.1625      25.7238
      561.740  3.28083e-08      92.1625      25.7225
      561.745  3.28066e-08      92.1625      25.7212
      561.750  3.28049e-08      92.1625      25.7198
      561.755  3.28032e-08      92.1625      25.7185
      561.760  3.28016e-08      92.1625      25.7172
      561.765  3.27999e-08      92.1625      25.7159
      561.770  3.27982e-08      92.1625      25.7145
      561.775  3.27965e-08      92.1625      25.7132
      561.780  3.27948e-08      92.1625      25.7119
      561.785  3.27931e-08      92.1625      25.7106
      561.790  3.27914e-08      92.1625      25.7093
      561.795  3.27898e-08      92.1625      25.7079
      561.800  3.27881e-08      92.1625      25.7066
      561.805  3.27864e-08      92.1625      25.7053
      561.810  3.27847e-08      92.1625      25.7040
      561.815  3.27830e-08      92.1625      25.7026
      561.820  3.27813e-08      92.1625      25.7013
      561.825  3.27796e-08      92.1625      25.7000
      561.830  3.27779e-08      92.1625      25.6987
      561.835  3.27762e-08      92.1625      25.6973
      561.840  3.27746e-08      92.1625      25.6960
      561.845  3.27729e-08      92.1625      25.6947
      561.850  3.27712e-08      92.1625      25.6934
      561.855  3.27695e-08      92.1625      25.6921
      561.860  3.27678e-08      92.1625      25.6908
