# Output Forward Model:       270.000-      559.995
# L.N. Fletcher Wed Apr 29 10:09:44 2020
Wavenumber [cm-1] | Radiance [W/cm2/sr/cm-1] | Brightess Temperature [K] | Surface Brightness [Jy/arcsec^2]
      270.000  4.94020e-07      100.107      387.323
      270.005  4.94009e-07      100.107      387.314
      270.010  4.93996e-07      100.107      387.305
      270.015  4.93983e-07      100.107      387.294
      270.020  4.93969e-07      100.107      387.284
      270.025  4.93955e-07      100.106      387.272
      270.030  4.93940e-07      100.106      387.260
      270.035  4.93923e-07      100.106      387.248
      270.040  4.93906e-07      100.105      387.234
      270.045  4.93888e-07      100.105      387.220
      270.050  4.93870e-07      100.104      387.205
      270.055  4.93850e-07      100.104      387.190
      270.060  4.93829e-07      100.103      387.174
      270.065  4.93808e-07      100.102      387.157
      270.070  4.93785e-07      100.102      387.139
      270.075  4.93762e-07      100.101      387.121
      270.080  4.93738e-07      100.100      387.102
      270.085  4.93713e-07      100.099      387.083
      270.090  4.93687e-07      100.099      387.063
      270.095  4.93661e-07      100.098      387.042
      270.100  4.93634e-07      100.097      387.021
      270.105  4.93607e-07      100.096      387.000
      270.110  4.93579e-07      100.095      386.978
      270.115  4.93551e-07      100.094      386.955
      270.120  4.93522e-07      100.093      386.933
      270.125  4.93493e-07      100.092      386.910
      270.130  4.93463e-07      100.091      386.887
      270.135  4.93433e-07      100.090      386.863
      270.140  4.93403e-07      100.089      386.840
      270.145  4.93373e-07      100.087      386.816
      270.150  4.93343e-07      100.086      386.792
      270.155  4.93313e-07      100.085      386.769
      270.160  4.93282e-07      100.084      386.745
      270.165  4.93252e-07      100.083      386.721
      270.170  4.93221e-07      100.082      386.697
      270.175  4.93191e-07      100.081      386.673
      270.180  4.93160e-07      100.080      386.649
      270.185  4.93129e-07      100.079      386.625
      270.190  4.93099e-07      100.077      386.601
      270.195  4.93068e-07      100.076      386.577
      270.200  4.93037e-07      100.075      386.553
      270.205  4.93006e-07      100.074      386.529
      270.210  4.92976e-07      100.073      386.505
      270.215  4.92945e-07      100.072      386.480
      270.220  4.92914e-07      100.071      386.456
      270.225  4.92884e-07      100.070      386.432
      270.230  4.92853e-07      100.069      386.408
      270.235  4.92822e-07      100.067      386.384
      270.240  4.92792e-07      100.066      386.360
      270.245  4.92761e-07      100.065      386.336
      270.250  4.92730e-07      100.064      386.312
      270.255  4.92700e-07      100.063      386.288
      270.260  4.92669e-07      100.062      386.264
      270.265  4.92638e-07      100.061      386.240
      270.270  4.92608e-07      100.060      386.216
      270.275  4.92577e-07      100.058      386.192
      270.280  4.92546e-07      100.057      386.168
      270.285  4.92516e-07      100.056      386.144
      270.290  4.92485e-07      100.055      386.120
      270.295  4.92454e-07      100.054      386.096
      270.300  4.92424e-07      100.053      386.072
      270.305  4.92393e-07      100.052      386.048
      270.310  4.92363e-07      100.051      386.024
      270.315  4.92332e-07      100.050      386.000
      270.320  4.92301e-07      100.048      385.976
      270.325  4.92271e-07      100.047      385.952
      270.330  4.92240e-07      100.046      385.928
      270.335  4.92210e-07      100.045      385.904
      270.340  4.92179e-07      100.044      385.880
      270.345  4.92148e-07      100.043      385.856
      270.350  4.92118e-07      100.042      385.832
      270.355  4.92087e-07      100.041      385.808
      270.360  4.92057e-07      100.039      385.784
      270.365  4.92026e-07      100.038      385.760
      270.370  4.91995e-07      100.037      385.736
      270.375  4.91965e-07      100.036      385.712
      270.380  4.91935e-07      100.035      385.688
      270.385  4.91904e-07      100.034      385.664
      270.390  4.91873e-07      100.033      385.640
      270.395  4.91843e-07      100.032      385.616
      270.400  4.91812e-07      100.031      385.592
      270.405  4.91782e-07      100.029      385.568
      270.410  4.91751e-07      100.028      385.544
      270.415  4.91721e-07      100.027      385.521
      270.420  4.91690e-07      100.026      385.496
      270.425  4.91659e-07      100.025      385.473
      270.430  4.91629e-07      100.024      385.449
      270.435  4.91599e-07      100.023      385.425
      270.440  4.91568e-07      100.022      385.401
      270.445  4.91537e-07      100.021      385.377
      270.450  4.91507e-07      100.019      385.353
      270.455  4.91477e-07      100.018      385.329
      270.460  4.91446e-07      100.017      385.305
      270.465  4.91415e-07      100.016      385.281
      270.470  4.91385e-07      100.015      385.257
      270.475  4.91355e-07      100.014      385.233
      270.480  4.91324e-07      100.013      385.210
      270.485  4.91294e-07      100.012      385.186
      270.490  4.91263e-07      100.011      385.162
      270.495  4.91233e-07      100.009      385.138
      270.500  4.91202e-07      100.008      385.114
      270.505  4.91172e-07      100.007      385.090
      270.510  4.91142e-07      100.006      385.066
      270.515  4.91111e-07      100.005      385.042
      270.520  4.91081e-07      100.004      385.019
      270.525  4.91050e-07      100.003      384.995
      270.530  4.91020e-07      100.002      384.971
      270.535  4.90990e-07      100.001      384.947
      270.540  4.90959e-07      99.9995      384.923
      270.545  4.90928e-07      99.9984      384.899
      270.550  4.90898e-07      99.9973      384.876
      270.555  4.90868e-07      99.9962      384.852
      270.560  4.90838e-07      99.9951      384.828
      270.565  4.90807e-07      99.9940      384.804
      270.570  4.90777e-07      99.9929      384.780
      270.575  4.90746e-07      99.9918      384.757
      270.580  4.90716e-07      99.9907      384.733
      270.585  4.90686e-07      99.9896      384.709
      270.590  4.90655e-07      99.9885      384.685
      270.595  4.90625e-07      99.9874      384.662
      270.600  4.90595e-07      99.9863      384.638
      270.605  4.90565e-07      99.9852      384.614
      270.610  4.90535e-07      99.9841      384.591
      270.615  4.90504e-07      99.9830      384.567
      270.620  4.90474e-07      99.9819      384.543
      270.625  4.90444e-07      99.9808      384.519
      270.630  4.90413e-07      99.9797      384.496
      270.635  4.90383e-07      99.9786      384.472
      270.640  4.90353e-07      99.9775      384.448
      270.645  4.90322e-07      99.9764      384.424
      270.650  4.90292e-07      99.9753      384.401
      270.655  4.90262e-07      99.9742      384.377
      270.660  4.90232e-07      99.9731      384.353
      270.665  4.90201e-07      99.9720      384.329
      270.670  4.90171e-07      99.9709      384.305
      270.675  4.90141e-07      99.9698      384.282
      270.680  4.90110e-07      99.9687      384.258
      270.685  4.90080e-07      99.9676      384.234
      270.690  4.90050e-07      99.9665      384.210
      270.695  4.90019e-07      99.9654      384.186
      270.700  4.89988e-07      99.9643      384.162
      270.705  4.89958e-07      99.9632      384.139
      270.710  4.89928e-07      99.9621      384.115
      270.715  4.89898e-07      99.9610      384.091
      270.720  4.89867e-07      99.9599      384.067
      270.725  4.89837e-07      99.9587      384.043
      270.730  4.89807e-07      99.9577      384.020
      270.735  4.89777e-07      99.9566      383.996
      270.740  4.89746e-07      99.9555      383.972
      270.745  4.89716e-07      99.9544      383.949
      270.750  4.89686e-07      99.9533      383.925
      270.755  4.89655e-07      99.9522      383.901
      270.760  4.89625e-07      99.9511      383.877
      270.765  4.89595e-07      99.9500      383.854
      270.770  4.89565e-07      99.9489      383.830
      270.775  4.89534e-07      99.9478      383.806
      270.780  4.89504e-07      99.9467      383.783
      270.785  4.89474e-07      99.9456      383.759
      270.790  4.89444e-07      99.9445      383.735
      270.795  4.89414e-07      99.9434      383.712
      270.800  4.89384e-07      99.9423      383.688
      270.805  4.89353e-07      99.9412      383.664
      270.810  4.89323e-07      99.9401      383.641
      270.815  4.89293e-07      99.9390      383.617
      270.820  4.89262e-07      99.9379      383.593
      270.825  4.89232e-07      99.9368      383.570
      270.830  4.89202e-07      99.9357      383.546
      270.835  4.89172e-07      99.9346      383.522
      270.840  4.89142e-07      99.9335      383.499
      270.845  4.89112e-07      99.9324      383.475
      270.850  4.89082e-07      99.9314      383.452
      270.855  4.89052e-07      99.9303      383.428
      270.860  4.89021e-07      99.9292      383.404
      270.865  4.88991e-07      99.9281      383.381
      270.870  4.88961e-07      99.9270      383.357
      270.875  4.88931e-07      99.9259      383.333
      270.880  4.88901e-07      99.9248      383.310
      270.885  4.88871e-07      99.9237      383.286
      270.890  4.88841e-07      99.9226      383.262
      270.895  4.88811e-07      99.9215      383.239
      270.900  4.88780e-07      99.9204      383.215
      270.905  4.88751e-07      99.9193      383.192
      270.910  4.88720e-07      99.9183      383.168
      270.915  4.88690e-07      99.9172      383.144
      270.920  4.88660e-07      99.9161      383.121
      270.925  4.88630e-07      99.9150      383.097
      270.930  4.88600e-07      99.9139      383.074
      270.935  4.88570e-07      99.9128      383.050
      270.940  4.88540e-07      99.9117      383.027
      270.945  4.88509e-07      99.9106      383.003
      270.950  4.88479e-07      99.9095      382.979
      270.955  4.88450e-07      99.9084      382.956
      270.960  4.88420e-07      99.9073      382.932
      270.965  4.88390e-07      99.9063      382.909
      270.970  4.88359e-07      99.9052      382.885
      270.975  4.88329e-07      99.9041      382.862
      270.980  4.88299e-07      99.9030      382.838
      270.985  4.88269e-07      99.9019      382.815
      270.990  4.88239e-07      99.9008      382.791
      270.995  4.88209e-07      99.8997      382.767
      271.000  4.88179e-07      99.8986      382.744
      271.005  4.88149e-07      99.8976      382.720
      271.010  4.88119e-07      99.8965      382.697
      271.015  4.88089e-07      99.8954      382.673
      271.020  4.88059e-07      99.8943      382.650
      271.025  4.88029e-07      99.8932      382.626
      271.030  4.87999e-07      99.8921      382.603
      271.035  4.87969e-07      99.8911      382.579
      271.040  4.87939e-07      99.8900      382.556
      271.045  4.87909e-07      99.8889      382.532
      271.050  4.87880e-07      99.8878      382.509
      271.055  4.87850e-07      99.8867      382.485
      271.060  4.87820e-07      99.8856      382.462
      271.065  4.87790e-07      99.8846      382.439
      271.070  4.87760e-07      99.8835      382.415
      271.075  4.87730e-07      99.8824      382.392
      271.080  4.87700e-07      99.8813      382.368
      271.085  4.87670e-07      99.8802      382.345
      271.090  4.87640e-07      99.8791      382.321
      271.095  4.87610e-07      99.8781      382.298
      271.100  4.87580e-07      99.8770      382.274
      271.105  4.87550e-07      99.8759      382.251
      271.110  4.87520e-07      99.8748      382.227
      271.115  4.87490e-07      99.8737      382.204
      271.120  4.87460e-07      99.8726      382.180
      271.125  4.87430e-07      99.8715      382.156
      271.130  4.87400e-07      99.8704      382.133
      271.135  4.87369e-07      99.8693      382.109
      271.140  4.87339e-07      99.8682      382.085
      271.145  4.87309e-07      99.8671      382.062
      271.150  4.87279e-07      99.8660      382.038
      271.155  4.87249e-07      99.8649      382.014
      271.160  4.87218e-07      99.8638      381.991
      271.165  4.87188e-07      99.8628      381.967
      271.170  4.87158e-07      99.8616      381.943
      271.175  4.87128e-07      99.8605      381.920
      271.180  4.87097e-07      99.8595      381.896
      271.185  4.87067e-07      99.8584      381.872
      271.190  4.87037e-07      99.8573      381.849
      271.195  4.87007e-07      99.8562      381.825
      271.200  4.86977e-07      99.8551      381.801
      271.205  4.86947e-07      99.8540      381.778
      271.210  4.86917e-07      99.8529      381.754
      271.215  4.86887e-07      99.8518      381.731
      271.220  4.86856e-07      99.8507      381.707
      271.225  4.86827e-07      99.8496      381.683
      271.230  4.86797e-07      99.8485      381.660
      271.235  4.86767e-07      99.8475      381.636
      271.240  4.86737e-07      99.8464      381.613
      271.245  4.86707e-07      99.8453      381.589
      271.250  4.86677e-07      99.8442      381.566
      271.255  4.86647e-07      99.8431      381.543
      271.260  4.86617e-07      99.8420      381.519
      271.265  4.86587e-07      99.8409      381.495
      271.270  4.86557e-07      99.8399      381.472
      271.275  4.86527e-07      99.8388      381.448
      271.280  4.86497e-07      99.8377      381.425
      271.285  4.86467e-07      99.8366      381.402
      271.290  4.86437e-07      99.8355      381.378
      271.295  4.86407e-07      99.8345      381.355
      271.300  4.86377e-07      99.8334      381.331
      271.305  4.86347e-07      99.8323      381.308
      271.310  4.86318e-07      99.8312      381.284
      271.315  4.86288e-07      99.8301      381.261
      271.320  4.86258e-07      99.8290      381.238
      271.325  4.86228e-07      99.8280      381.214
      271.330  4.86198e-07      99.8269      381.191
      271.335  4.86168e-07      99.8258      381.167
      271.340  4.86139e-07      99.8247      381.144
      271.345  4.86109e-07      99.8237      381.121
      271.350  4.86079e-07      99.8226      381.097
      271.355  4.86049e-07      99.8215      381.074
      271.360  4.86019e-07      99.8204      381.050
      271.365  4.85989e-07      99.8193      381.027
      271.370  4.85959e-07      99.8183      381.004
      271.375  4.85930e-07      99.8172      380.980
      271.380  4.85900e-07      99.8161      380.957
      271.385  4.85870e-07      99.8150      380.933
      271.390  4.85840e-07      99.8139      380.910
      271.395  4.85810e-07      99.8129      380.887
      271.400  4.85781e-07      99.8118      380.863
      271.405  4.85751e-07      99.8107      380.840
      271.410  4.85721e-07      99.8096      380.817
      271.415  4.85691e-07      99.8085      380.793
      271.420  4.85661e-07      99.8075      380.770
      271.425  4.85632e-07      99.8064      380.747
      271.430  4.85602e-07      99.8053      380.723
      271.435  4.85572e-07      99.8043      380.700
      271.440  4.85542e-07      99.8032      380.676
      271.445  4.85512e-07      99.8021      380.653
      271.450  4.85482e-07      99.8010      380.630
      271.455  4.85453e-07      99.7999      380.606
      271.460  4.85423e-07      99.7989      380.583
      271.465  4.85393e-07      99.7978      380.560
      271.470  4.85364e-07      99.7967      380.536
      271.475  4.85334e-07      99.7956      380.513
      271.480  4.85304e-07      99.7946      380.490
      271.485  4.85274e-07      99.7935      380.466
      271.490  4.85244e-07      99.7924      380.443
      271.495  4.85215e-07      99.7913      380.420
      271.500  4.85185e-07      99.7903      380.397
      271.505  4.85156e-07      99.7892      380.373
      271.510  4.85126e-07      99.7882      380.350
      271.515  4.85097e-07      99.7871      380.327
      271.520  4.85067e-07      99.7860      380.304
      271.525  4.85037e-07      99.7850      380.281
      271.530  4.85008e-07      99.7839      380.257
      271.535  4.84978e-07      99.7828      380.234
      271.540  4.84949e-07      99.7818      380.211
      271.545  4.84919e-07      99.7807      380.188
      271.550  4.84890e-07      99.7797      380.165
      271.555  4.84860e-07      99.7786      380.142
      271.560  4.84831e-07      99.7775      380.119
      271.565  4.84802e-07      99.7765      380.096
      271.570  4.84772e-07      99.7754      380.072
      271.575  4.84742e-07      99.7744      380.049
      271.580  4.84713e-07      99.7733      380.026
      271.585  4.84684e-07      99.7722      380.003
      271.590  4.84654e-07      99.7712      379.980
      271.595  4.84624e-07      99.7701      379.957
      271.600  4.84595e-07      99.7690      379.934
      271.605  4.84565e-07      99.7680      379.911
      271.610  4.84536e-07      99.7669      379.887
      271.615  4.84506e-07      99.7658      379.864
      271.620  4.84476e-07      99.7647      379.840
      271.625  4.84447e-07      99.7637      379.817
      271.630  4.84417e-07      99.7626      379.794
      271.635  4.84387e-07      99.7615      379.771
      271.640  4.84357e-07      99.7605      379.747
      271.645  4.84327e-07      99.7594      379.724
      271.650  4.84297e-07      99.7583      379.700
      271.655  4.84267e-07      99.7572      379.677
      271.660  4.84238e-07      99.7561      379.654
      271.665  4.84208e-07      99.7550      379.630
      271.670  4.84178e-07      99.7540      379.607
      271.675  4.84148e-07      99.7529      379.583
      271.680  4.84118e-07      99.7518      379.560
      271.685  4.84089e-07      99.7507      379.537
      271.690  4.84059e-07      99.7497      379.514
      271.695  4.84029e-07      99.7486      379.490
      271.700  4.83999e-07      99.7475      379.467
      271.705  4.83970e-07      99.7465      379.444
      271.710  4.83940e-07      99.7454      379.420
      271.715  4.83911e-07      99.7443      379.397
      271.720  4.83881e-07      99.7432      379.374
      271.725  4.83851e-07      99.7422      379.351
      271.730  4.83822e-07      99.7411      379.327
      271.735  4.83792e-07      99.7400      379.304
      271.740  4.83763e-07      99.7390      379.281
      271.745  4.83733e-07      99.7379      379.258
      271.750  4.83703e-07      99.7368      379.235
      271.755  4.83674e-07      99.7358      379.212
      271.760  4.83644e-07      99.7347      379.188
      271.765  4.83615e-07      99.7336      379.165
      271.770  4.83585e-07      99.7326      379.142
      271.775  4.83556e-07      99.7315      379.119
      271.780  4.83526e-07      99.7305      379.096
      271.785  4.83497e-07      99.7294      379.073
      271.790  4.83467e-07      99.7283      379.050
      271.795  4.83438e-07      99.7273      379.026
      271.800  4.83408e-07      99.7262      379.003
      271.805  4.83379e-07      99.7251      378.980
      271.810  4.83349e-07      99.7241      378.957
      271.815  4.83320e-07      99.7230      378.934
      271.820  4.83290e-07      99.7220      378.911
      271.825  4.83261e-07      99.7209      378.888
      271.830  4.83231e-07      99.7198      378.865
      271.835  4.83202e-07      99.7188      378.842
      271.840  4.83173e-07      99.7177      378.819
      271.845  4.83143e-07      99.7167      378.796
      271.850  4.83114e-07      99.7156      378.773
      271.855  4.83085e-07      99.7146      378.750
      271.860  4.83055e-07      99.7135      378.727
