# Output Forward Model:       270.000-      569.990
# L.N. Fletcher Fri Feb 21 15:33:18 2020
Wavenumber [cm-1] | Radiance [W/cm2/sr/cm-1] | Brightess Temperature [K] | Surface Brightness [Jy/arcsec^2]
      270.000  4.94016e-07      100.107      387.320
      270.010  4.93992e-07      100.107      387.301
      270.020  4.93965e-07      100.106      387.280
      270.030  4.93935e-07      100.106      387.257
      270.040  4.93902e-07      100.105      387.231
      270.050  4.93866e-07      100.104      387.202
      270.060  4.93825e-07      100.103      387.171
      270.070  4.93782e-07      100.102      387.137
      270.080  4.93735e-07      100.100      387.100
      270.090  4.93685e-07      100.098      387.061
      270.100  4.93633e-07      100.097      387.020
      270.110  4.93578e-07      100.095      386.977
      270.120  4.93521e-07      100.093      386.932
      270.130  4.93463e-07      100.091      386.886
      270.140  4.93403e-07      100.089      386.840
      270.150  4.93343e-07      100.086      386.793
      270.160  4.93282e-07      100.084      386.745
      270.170  4.93221e-07      100.082      386.697
      270.180  4.93160e-07      100.080      386.649
      270.190  4.93099e-07      100.077      386.601
      270.200  4.93038e-07      100.075      386.553
      270.210  4.92976e-07      100.073      386.505
      270.220  4.92915e-07      100.071      386.457
      270.230  4.92853e-07      100.069      386.409
      270.240  4.92792e-07      100.066      386.361
      270.250  4.92731e-07      100.064      386.312
      270.260  4.92669e-07      100.062      386.264
      270.270  4.92608e-07      100.060      386.216
      270.280  4.92547e-07      100.057      386.168
      270.290  4.92485e-07      100.055      386.120
      270.300  4.92424e-07      100.053      386.072
      270.310  4.92363e-07      100.051      386.024
      270.320  4.92302e-07      100.048      385.976
      270.330  4.92241e-07      100.046      385.928
      270.340  4.92179e-07      100.044      385.880
      270.350  4.92118e-07      100.042      385.832
      270.360  4.92057e-07      100.040      385.784
      270.370  4.91996e-07      100.037      385.736
      270.380  4.91935e-07      100.035      385.688
      270.390  4.91874e-07      100.033      385.640
      270.400  4.91813e-07      100.031      385.593
      270.410  4.91752e-07      100.028      385.545
      270.420  4.91690e-07      100.026      385.497
      270.430  4.91630e-07      100.024      385.449
      270.440  4.91568e-07      100.022      385.401
      270.450  4.91507e-07      100.019      385.353
      270.460  4.91447e-07      100.017      385.306
      270.470  4.91386e-07      100.015      385.258
      270.480  4.91324e-07      100.013      385.210
      270.490  4.91264e-07      100.011      385.162
      270.500  4.91203e-07      100.008      385.114
      270.510  4.91142e-07      100.006      385.067
      270.520  4.91081e-07      100.004      385.019
      270.530  4.91020e-07      100.002      384.971
      270.540  4.90959e-07      99.9995      384.924
      270.550  4.90899e-07      99.9973      384.876
      270.560  4.90838e-07      99.9951      384.829
      270.570  4.90777e-07      99.9929      384.781
      270.580  4.90717e-07      99.9907      384.734
      270.590  4.90656e-07      99.9885      384.686
      270.600  4.90596e-07      99.9863      384.639
      270.610  4.90536e-07      99.9842      384.591
      270.620  4.90475e-07      99.9820      384.544
      270.630  4.90414e-07      99.9798      384.496
      270.640  4.90354e-07      99.9776      384.449
      270.650  4.90293e-07      99.9754      384.401
      270.660  4.90233e-07      99.9732      384.354
      270.670  4.90172e-07      99.9709      384.306
      270.680  4.90111e-07      99.9687      384.259
      270.690  4.90050e-07      99.9665      384.211
      270.700  4.89989e-07      99.9643      384.163
      270.710  4.89929e-07      99.9621      384.116
      270.720  4.89868e-07      99.9599      384.068
      270.730  4.89807e-07      99.9577      384.020
      270.740  4.89747e-07      99.9555      383.973
      270.750  4.89686e-07      99.9533      383.925
      270.760  4.89626e-07      99.9511      383.878
      270.770  4.89565e-07      99.9489      383.830
      270.780  4.89505e-07      99.9467      383.783
      270.790  4.89444e-07      99.9445      383.736
      270.800  4.89384e-07      99.9423      383.688
      270.810  4.89323e-07      99.9401      383.641
      270.820  4.89263e-07      99.9379      383.594
      270.830  4.89203e-07      99.9358      383.547
      270.840  4.89142e-07      99.9336      383.499
      270.850  4.89082e-07      99.9314      383.452
      270.860  4.89022e-07      99.9292      383.405
      270.870  4.88962e-07      99.9270      383.357
      270.880  4.88901e-07      99.9248      383.310
      270.890  4.88841e-07      99.9226      383.263
      270.900  4.88781e-07      99.9204      383.216
      270.910  4.88721e-07      99.9183      383.168
      270.920  4.88660e-07      99.9161      383.121
      270.930  4.88600e-07      99.9139      383.074
      270.940  4.88540e-07      99.9117      383.027
      270.950  4.88480e-07      99.9095      382.980
      270.960  4.88420e-07      99.9074      382.933
      270.970  4.88360e-07      99.9052      382.885
      270.980  4.88300e-07      99.9030      382.838
      270.990  4.88240e-07      99.9008      382.791
      271.000  4.88180e-07      99.8987      382.744
      271.010  4.88120e-07      99.8965      382.697
      271.020  4.88060e-07      99.8943      382.650
      271.030  4.88000e-07      99.8922      382.604
      271.040  4.87941e-07      99.8900      382.557
      271.050  4.87881e-07      99.8879      382.510
      271.060  4.87822e-07      99.8857      382.464
      271.070  4.87762e-07      99.8836      382.417
      271.080  4.87703e-07      99.8815      382.371
      271.090  4.87643e-07      99.8793      382.324
      271.100  4.87583e-07      99.8771      382.277
      271.110  4.87523e-07      99.8750      382.230
      271.120  4.87463e-07      99.8728      382.183
      271.130  4.87403e-07      99.8706      382.135
      271.140  4.87342e-07      99.8684      382.088
      271.150  4.87281e-07      99.8662      382.040
      271.160  4.87221e-07      99.8640      381.992
      271.170  4.87160e-07      99.8617      381.945
      271.180  4.87099e-07      99.8595      381.897
      271.190  4.87038e-07      99.8573      381.849
      271.200  4.86978e-07      99.8551      381.802
      271.210  4.86918e-07      99.8529      381.755
      271.220  4.86857e-07      99.8508      381.708
      271.230  4.86797e-07      99.8486      381.660
      271.240  4.86737e-07      99.8464      381.613
      271.250  4.86677e-07      99.8442      381.566
      271.260  4.86617e-07      99.8420      381.519
      271.270  4.86557e-07      99.8399      381.472
      271.280  4.86497e-07      99.8377      381.425
      271.290  4.86438e-07      99.8356      381.378
      271.300  4.86378e-07      99.8334      381.332
      271.310  4.86318e-07      99.8312      381.285
      271.320  4.86258e-07      99.8291      381.238
      271.330  4.86199e-07      99.8269      381.191
      271.340  4.86139e-07      99.8247      381.144
      271.350  4.86079e-07      99.8226      381.097
      271.360  4.86020e-07      99.8204      381.051
      271.370  4.85960e-07      99.8183      381.004
      271.380  4.85900e-07      99.8161      380.957
      271.390  4.85841e-07      99.8140      380.910
      271.400  4.85781e-07      99.8118      380.864
      271.410  4.85721e-07      99.8097      380.817
      271.420  4.85662e-07      99.8075      380.770
      271.430  4.85602e-07      99.8054      380.723
      271.440  4.85542e-07      99.8032      380.676
      271.450  4.85483e-07      99.8010      380.630
      271.460  4.85423e-07      99.7989      380.583
      271.470  4.85364e-07      99.7967      380.536
      271.480  4.85304e-07      99.7946      380.490
      271.490  4.85245e-07      99.7924      380.443
      271.500  4.85185e-07      99.7903      380.396
      271.510  4.85125e-07      99.7881      380.350
      271.520  4.85066e-07      99.7860      380.303
      271.530  4.85007e-07      99.7838      380.257
      271.540  4.84947e-07      99.7817      380.210
      271.550  4.84888e-07      99.7796      380.164
      271.560  4.84828e-07      99.7774      380.117
      271.570  4.84769e-07      99.7753      380.070
      271.580  4.84710e-07      99.7731      380.024
      271.590  4.84650e-07      99.7710      379.977
      271.600  4.84591e-07      99.7688      379.931
      271.610  4.84532e-07      99.7667      379.885
      271.620  4.84473e-07      99.7646      379.838
      271.630  4.84413e-07      99.7624      379.791
      271.640  4.84354e-07      99.7603      379.745
      271.650  4.84295e-07      99.7582      379.699
      271.660  4.84235e-07      99.7560      379.652
      271.670  4.84176e-07      99.7539      379.606
      271.680  4.84117e-07      99.7518      379.559
      271.690  4.84058e-07      99.7496      379.513
      271.700  4.83999e-07      99.7475      379.466
      271.710  4.83940e-07      99.7454      379.420
      271.720  4.83881e-07      99.7432      379.374
      271.730  4.83822e-07      99.7411      379.327
      271.740  4.83763e-07      99.7390      379.281
      271.750  4.83703e-07      99.7368      379.235
      271.760  4.83644e-07      99.7347      379.189
      271.770  4.83585e-07      99.7326      379.142
      271.780  4.83526e-07      99.7305      379.096
      271.790  4.83467e-07      99.7283      379.050
      271.800  4.83408e-07      99.7262      379.004
      271.810  4.83350e-07      99.7241      378.957
      271.820  4.83291e-07      99.7220      378.911
      271.830  4.83232e-07      99.7199      378.865
      271.840  4.83173e-07      99.7177      378.819
      271.850  4.83114e-07      99.7156      378.772
      271.860  4.83055e-07      99.7135      378.727
      271.870  4.82996e-07      99.7114      378.680
      271.880  4.82937e-07      99.7093      378.634
      271.890  4.82879e-07      99.7072      378.588
      271.900  4.82820e-07      99.7050      378.542
      271.910  4.82761e-07      99.7029      378.496
      271.920  4.82702e-07      99.7008      378.450
      271.930  4.82644e-07      99.6987      378.404
      271.940  4.82584e-07      99.6966      378.358
      271.950  4.82526e-07      99.6945      378.312
      271.960  4.82467e-07      99.6924      378.266
      271.970  4.82408e-07      99.6902      378.219
      271.980  4.82349e-07      99.6881      378.173
      271.990  4.82291e-07      99.6860      378.127
      272.000  4.82232e-07      99.6839      378.081
      272.010  4.82173e-07      99.6818      378.035
      272.020  4.82114e-07      99.6797      377.989
      272.030  4.82056e-07      99.6776      377.943
      272.040  4.81997e-07      99.6754      377.897
      272.050  4.81938e-07      99.6733      377.851
      272.060  4.81879e-07      99.6712      377.805
      272.070  4.81821e-07      99.6691      377.759
      272.080  4.81762e-07      99.6670      377.713
      272.090  4.81703e-07      99.6649      377.667
      272.100  4.81644e-07      99.6628      377.621
      272.110  4.81586e-07      99.6607      377.575
      272.120  4.81527e-07      99.6586      377.529
      272.130  4.81469e-07      99.6564      377.483
      272.140  4.81410e-07      99.6543      377.437
      272.150  4.81351e-07      99.6522      377.391
      272.160  4.81293e-07      99.6501      377.345
      272.170  4.81234e-07      99.6480      377.299
      272.180  4.81176e-07      99.6459      377.253
      272.190  4.81117e-07      99.6438      377.207
      272.200  4.81059e-07      99.6417      377.161
      272.210  4.81000e-07      99.6396      377.115
      272.220  4.80941e-07      99.6375      377.069
      272.230  4.80883e-07      99.6354      377.023
      272.240  4.80825e-07      99.6333      376.978
      272.250  4.80766e-07      99.6312      376.932
      272.260  4.80708e-07      99.6291      376.886
      272.270  4.80649e-07      99.6270      376.840
      272.280  4.80591e-07      99.6249      376.795
      272.290  4.80532e-07      99.6228      376.749
      272.300  4.80474e-07      99.6207      376.703
      272.310  4.80416e-07      99.6187      376.657
      272.320  4.80357e-07      99.6166      376.612
      272.330  4.80299e-07      99.6145      376.566
      272.340  4.80241e-07      99.6124      376.520
      272.350  4.80183e-07      99.6103      376.474
      272.360  4.80124e-07      99.6082      376.429
      272.370  4.80066e-07      99.6061      376.383
      272.380  4.80008e-07      99.6040      376.337
      272.390  4.79950e-07      99.6019      376.292
      272.400  4.79891e-07      99.5998      376.246
      272.410  4.79833e-07      99.5977      376.200
      272.420  4.79775e-07      99.5956      376.155
      272.430  4.79717e-07      99.5936      376.109
      272.440  4.79659e-07      99.5915      376.064
      272.450  4.79600e-07      99.5894      376.018
      272.460  4.79542e-07      99.5873      375.973
      272.470  4.79484e-07      99.5852      375.927
      272.480  4.79426e-07      99.5832      375.881
      272.490  4.79368e-07      99.5811      375.836
      272.500  4.79310e-07      99.5790      375.790
      272.510  4.79252e-07      99.5769      375.745
      272.520  4.79194e-07      99.5749      375.700
      272.530  4.79136e-07      99.5728      375.654
      272.540  4.79078e-07      99.5707      375.608
      272.550  4.79020e-07      99.5686      375.563
      272.560  4.78962e-07      99.5666      375.518
      272.570  4.78904e-07      99.5645      375.472
      272.580  4.78847e-07      99.5624      375.427
      272.590  4.78789e-07      99.5603      375.382
      272.600  4.78731e-07      99.5583      375.336
      272.610  4.78673e-07      99.5562      375.291
      272.620  4.78615e-07      99.5541      375.245
      272.630  4.78557e-07      99.5521      375.200
      272.640  4.78499e-07      99.5500      375.155
      272.650  4.78442e-07      99.5479      375.109
      272.660  4.78384e-07      99.5459      375.064
      272.670  4.78326e-07      99.5438      375.019
      272.680  4.78268e-07      99.5417      374.974
      272.690  4.78210e-07      99.5397      374.928
      272.700  4.78153e-07      99.5376      374.883
      272.710  4.78095e-07      99.5355      374.838
      272.720  4.78037e-07      99.5335      374.792
      272.730  4.77980e-07      99.5314      374.747
      272.740  4.77922e-07      99.5294      374.702
      272.750  4.77864e-07      99.5273      374.657
      272.760  4.77807e-07      99.5252      374.612
      272.770  4.77749e-07      99.5232      374.566
      272.780  4.77692e-07      99.5211      374.521
      272.790  4.77634e-07      99.5191      374.476
      272.800  4.77576e-07      99.5170      374.431
      272.810  4.77519e-07      99.5150      374.386
      272.820  4.77461e-07      99.5129      374.341
      272.830  4.77404e-07      99.5109      374.296
      272.840  4.77346e-07      99.5088      374.251
      272.850  4.77289e-07      99.5067      374.206
      272.860  4.77231e-07      99.5047      374.161
      272.870  4.77174e-07      99.5026      374.116
      272.880  4.77116e-07      99.5006      374.070
      272.890  4.77059e-07      99.4986      374.025
      272.900  4.77002e-07      99.4965      373.980
      272.910  4.76944e-07      99.4945      373.935
      272.920  4.76887e-07      99.4924      373.890
      272.930  4.76829e-07      99.4904      373.845
      272.940  4.76772e-07      99.4883      373.800
      272.950  4.76715e-07      99.4863      373.755
      272.960  4.76657e-07      99.4842      373.711
      272.970  4.76600e-07      99.4822      373.665
      272.980  4.76543e-07      99.4801      373.621
      272.990  4.76485e-07      99.4781      373.575
      273.000  4.76428e-07      99.4760      373.530
      273.010  4.76370e-07      99.4740      373.485
      273.020  4.76313e-07      99.4719      373.440
      273.030  4.76256e-07      99.4699      373.396
      273.040  4.76198e-07      99.4678      373.351
      273.050  4.76141e-07      99.4658      373.306
      273.060  4.76083e-07      99.4637      373.261
      273.070  4.76026e-07      99.4617      373.216
      273.080  4.75969e-07      99.4597      373.171
      273.090  4.75911e-07      99.4576      373.126
      273.100  4.75854e-07      99.4556      373.081
      273.110  4.75797e-07      99.4535      373.036
      273.120  4.75739e-07      99.4515      372.991
      273.130  4.75682e-07      99.4494      372.946
      273.140  4.75625e-07      99.4474      372.901
      273.150  4.75568e-07      99.4454      372.856
      273.160  4.75510e-07      99.4433      372.811
      273.170  4.75453e-07      99.4413      372.766
      273.180  4.75396e-07      99.4392      372.722
      273.190  4.75338e-07      99.4372      372.676
      273.200  4.75281e-07      99.4352      372.632
      273.210  4.75224e-07      99.4331      372.587
      273.220  4.75167e-07      99.4311      372.542
      273.230  4.75110e-07      99.4290      372.497
      273.240  4.75053e-07      99.4270      372.453
      273.250  4.74996e-07      99.4250      372.408
      273.260  4.74939e-07      99.4229      372.363
      273.270  4.74882e-07      99.4209      372.318
      273.280  4.74825e-07      99.4189      372.274
      273.290  4.74768e-07      99.4168      372.229
      273.300  4.74711e-07      99.4148      372.184
      273.310  4.74654e-07      99.4128      372.139
      273.320  4.74597e-07      99.4108      372.095
      273.330  4.74540e-07      99.4087      372.050
      273.340  4.74483e-07      99.4067      372.005
      273.350  4.74425e-07      99.4047      371.961
      273.360  4.74369e-07      99.4027      371.916
      273.370  4.74312e-07      99.4006      371.871
      273.380  4.74255e-07      99.3986      371.827
      273.390  4.74198e-07      99.3966      371.782
      273.400  4.74141e-07      99.3946      371.738
      273.410  4.74084e-07      99.3925      371.693
      273.420  4.74027e-07      99.3905      371.648
      273.430  4.73971e-07      99.3885      371.604
      273.440  4.73914e-07      99.3865      371.559
      273.450  4.73857e-07      99.3845      371.515
      273.460  4.73800e-07      99.3825      371.471
      273.470  4.73743e-07      99.3804      371.426
      273.480  4.73687e-07      99.3784      371.381
      273.490  4.73630e-07      99.3764      371.337
      273.500  4.73573e-07      99.3744      371.293
      273.510  4.73517e-07      99.3724      371.248
      273.520  4.73460e-07      99.3704      371.204
      273.530  4.73403e-07      99.3683      371.159
      273.540  4.73346e-07      99.3663      371.115
      273.550  4.73290e-07      99.3643      371.070
      273.560  4.73233e-07      99.3623      371.026
      273.570  4.73177e-07      99.3603      370.982
      273.580  4.73120e-07      99.3583      370.937
      273.590  4.73063e-07      99.3563      370.893
      273.600  4.73007e-07      99.3543      370.848
      273.610  4.72950e-07      99.3523      370.804
      273.620  4.72894e-07      99.3503      370.760
      273.630  4.72837e-07      99.3483      370.716
      273.640  4.72781e-07      99.3462      370.671
      273.650  4.72724e-07      99.3442      370.627
      273.660  4.72668e-07      99.3422      370.583
      273.670  4.72611e-07      99.3402      370.538
      273.680  4.72555e-07      99.3382      370.494
      273.690  4.72498e-07      99.3362      370.450
      273.700  4.72442e-07      99.3342      370.406
      273.710  4.72386e-07      99.3322      370.362
      273.720  4.72329e-07      99.3302      370.317
