# Output Forward Model:       270.000-      559.995
# L.N. Fletcher Wed Apr 29 10:09:06 2020
Wavenumber [cm-1] | Radiance [W/cm2/sr/cm-1] | Brightess Temperature [K] | Surface Brightness [Jy/arcsec^2]
      270.000  2.96374e-08      58.2027      23.2364
      270.005  2.96354e-08      58.2027      23.2348
      270.010  2.96332e-08      58.2027      23.2332
      270.015  2.96309e-08      58.2026      23.2313
      270.020  2.96285e-08      58.2025      23.2295
      270.025  2.96259e-08      58.2023      23.2274
      270.030  2.96233e-08      58.2021      23.2253
      270.035  2.96204e-08      58.2019      23.2231
      270.040  2.96174e-08      58.2016      23.2207
      270.045  2.96142e-08      58.2012      23.2182
      270.050  2.96109e-08      58.2009      23.2156
      270.055  2.96074e-08      58.2004      23.2129
      270.060  2.96038e-08      58.2000      23.2101
      270.065  2.96000e-08      58.1994      23.2071
      270.070  2.95961e-08      58.1989      23.2040
      270.075  2.95920e-08      58.1983      23.2008
      270.080  2.95878e-08      58.1976      23.1975
      270.085  2.95834e-08      58.1969      23.1941
      270.090  2.95789e-08      58.1962      23.1906
      270.095  2.95743e-08      58.1954      23.1869
      270.100  2.95695e-08      58.1946      23.1832
      270.105  2.95647e-08      58.1938      23.1794
      270.110  2.95598e-08      58.1930      23.1756
      270.115  2.95548e-08      58.1921      23.1717
      270.120  2.95498e-08      58.1912      23.1677
      270.125  2.95446e-08      58.1903      23.1637
      270.130  2.95395e-08      58.1893      23.1596
      270.135  2.95342e-08      58.1884      23.1555
      270.140  2.95290e-08      58.1874      23.1514
      270.145  2.95237e-08      58.1865      23.1473
      270.150  2.95184e-08      58.1855      23.1431
      270.155  2.95130e-08      58.1845      23.1389
      270.160  2.95077e-08      58.1835      23.1347
      270.165  2.95023e-08      58.1826      23.1305
      270.170  2.94970e-08      58.1816      23.1263
      270.175  2.94916e-08      58.1806      23.1221
      270.180  2.94862e-08      58.1796      23.1179
      270.185  2.94808e-08      58.1786      23.1137
      270.190  2.94755e-08      58.1776      23.1094
      270.195  2.94701e-08      58.1766      23.1052
      270.200  2.94647e-08      58.1756      23.1010
      270.205  2.94593e-08      58.1746      23.0968
      270.210  2.94539e-08      58.1736      23.0926
      270.215  2.94485e-08      58.1726      23.0883
      270.220  2.94432e-08      58.1716      23.0841
      270.225  2.94378e-08      58.1706      23.0799
      270.230  2.94324e-08      58.1696      23.0757
      270.235  2.94270e-08      58.1686      23.0715
      270.240  2.94217e-08      58.1676      23.0673
      270.245  2.94163e-08      58.1667      23.0630
      270.250  2.94109e-08      58.1657      23.0588
      270.255  2.94055e-08      58.1647      23.0546
      270.260  2.94002e-08      58.1637      23.0504
      270.265  2.93948e-08      58.1627      23.0462
      270.270  2.93894e-08      58.1617      23.0420
      270.275  2.93841e-08      58.1607      23.0378
      270.280  2.93787e-08      58.1597      23.0336
      270.285  2.93734e-08      58.1587      23.0294
      270.290  2.93680e-08      58.1577      23.0252
      270.295  2.93626e-08      58.1567      23.0210
      270.300  2.93573e-08      58.1558      23.0168
      270.305  2.93519e-08      58.1548      23.0126
      270.310  2.93466e-08      58.1538      23.0084
      270.315  2.93412e-08      58.1528      23.0042
      270.320  2.93359e-08      58.1518      23.0000
      270.325  2.93305e-08      58.1508      22.9958
      270.330  2.93252e-08      58.1498      22.9917
      270.335  2.93199e-08      58.1488      22.9875
      270.340  2.93145e-08      58.1478      22.9833
      270.345  2.93092e-08      58.1469      22.9791
      270.350  2.93038e-08      58.1459      22.9749
      270.355  2.92985e-08      58.1449      22.9707
      270.360  2.92932e-08      58.1439      22.9665
      270.365  2.92878e-08      58.1429      22.9624
      270.370  2.92825e-08      58.1419      22.9582
      270.375  2.92772e-08      58.1409      22.9540
      270.380  2.92719e-08      58.1399      22.9498
      270.385  2.92665e-08      58.1390      22.9456
      270.390  2.92612e-08      58.1380      22.9415
      270.395  2.92559e-08      58.1370      22.9373
      270.400  2.92506e-08      58.1360      22.9331
      270.405  2.92453e-08      58.1350      22.9290
      270.410  2.92399e-08      58.1340      22.9248
      270.415  2.92346e-08      58.1331      22.9206
      270.420  2.92293e-08      58.1321      22.9165
      270.425  2.92240e-08      58.1311      22.9123
      270.430  2.92187e-08      58.1301      22.9081
      270.435  2.92134e-08      58.1291      22.9040
      270.440  2.92081e-08      58.1282      22.8998
      270.445  2.92028e-08      58.1272      22.8957
      270.450  2.91975e-08      58.1262      22.8915
      270.455  2.91922e-08      58.1252      22.8874
      270.460  2.91869e-08      58.1242      22.8832
      270.465  2.91816e-08      58.1232      22.8791
      270.470  2.91763e-08      58.1223      22.8749
      270.475  2.91710e-08      58.1213      22.8707
      270.480  2.91657e-08      58.1203      22.8666
      270.485  2.91604e-08      58.1193      22.8625
      270.490  2.91551e-08      58.1184      22.8583
      270.495  2.91498e-08      58.1174      22.8542
      270.500  2.91446e-08      58.1164      22.8500
      270.505  2.91393e-08      58.1154      22.8459
      270.510  2.91340e-08      58.1144      22.8417
      270.515  2.91287e-08      58.1135      22.8376
      270.520  2.91234e-08      58.1125      22.8335
      270.525  2.91182e-08      58.1115      22.8293
      270.530  2.91129e-08      58.1105      22.8252
      270.535  2.91076e-08      58.1096      22.8211
      270.540  2.91023e-08      58.1086      22.8169
      270.545  2.90971e-08      58.1076      22.8128
      270.550  2.90918e-08      58.1066      22.8087
      270.555  2.90865e-08      58.1057      22.8045
      270.560  2.90813e-08      58.1047      22.8004
      270.565  2.90760e-08      58.1037      22.7963
      270.570  2.90707e-08      58.1027      22.7921
      270.575  2.90655e-08      58.1018      22.7880
      270.580  2.90602e-08      58.1008      22.7839
      270.585  2.90550e-08      58.0998      22.7798
      270.590  2.90497e-08      58.0988      22.7757
      270.595  2.90445e-08      58.0979      22.7716
      270.600  2.90392e-08      58.0969      22.7674
      270.605  2.90340e-08      58.0959      22.7633
      270.610  2.90287e-08      58.0950      22.7592
      270.615  2.90235e-08      58.0940      22.7551
      270.620  2.90182e-08      58.0930      22.7510
      270.625  2.90130e-08      58.0920      22.7469
      270.630  2.90077e-08      58.0911      22.7428
      270.635  2.90025e-08      58.0901      22.7386
      270.640  2.89973e-08      58.0891      22.7345
      270.645  2.89921e-08      58.0882      22.7305
      270.650  2.89868e-08      58.0872      22.7263
      270.655  2.89816e-08      58.0862      22.7222
      270.660  2.89764e-08      58.0853      22.7181
      270.665  2.89711e-08      58.0843      22.7140
      270.670  2.89659e-08      58.0833      22.7099
      270.675  2.89607e-08      58.0824      22.7059
      270.680  2.89555e-08      58.0814      22.7018
      270.685  2.89502e-08      58.0804      22.6977
      270.690  2.89450e-08      58.0795      22.6936
      270.695  2.89398e-08      58.0785      22.6895
      270.700  2.89345e-08      58.0775      22.6854
      270.705  2.89294e-08      58.0766      22.6813
      270.710  2.89241e-08      58.0756      22.6772
      270.715  2.89189e-08      58.0746      22.6731
      270.720  2.89137e-08      58.0737      22.6690
      270.725  2.89085e-08      58.0727      22.6649
      270.730  2.89033e-08      58.0717      22.6609
      270.735  2.88981e-08      58.0708      22.6568
      270.740  2.88929e-08      58.0698      22.6527
      270.745  2.88877e-08      58.0688      22.6486
      270.750  2.88825e-08      58.0679      22.6446
      270.755  2.88773e-08      58.0669      22.6405
      270.760  2.88721e-08      58.0660      22.6364
      270.765  2.88669e-08      58.0650      22.6323
      270.770  2.88617e-08      58.0640      22.6283
      270.775  2.88565e-08      58.0631      22.6242
      270.780  2.88513e-08      58.0621      22.6201
      270.785  2.88461e-08      58.0611      22.6160
      270.790  2.88409e-08      58.0602      22.6120
      270.795  2.88357e-08      58.0592      22.6079
      270.800  2.88306e-08      58.0583      22.6039
      270.805  2.88254e-08      58.0573      22.5998
      270.810  2.88202e-08      58.0563      22.5957
      270.815  2.88150e-08      58.0554      22.5917
      270.820  2.88098e-08      58.0544      22.5876
      270.825  2.88047e-08      58.0535      22.5835
      270.830  2.87995e-08      58.0525      22.5795
      270.835  2.87943e-08      58.0516      22.5754
      270.840  2.87892e-08      58.0506      22.5714
      270.845  2.87840e-08      58.0496      22.5673
      270.850  2.87788e-08      58.0487      22.5633
      270.855  2.87737e-08      58.0477      22.5592
      270.860  2.87685e-08      58.0468      22.5552
      270.865  2.87633e-08      58.0458      22.5511
      270.870  2.87582e-08      58.0449      22.5471
      270.875  2.87530e-08      58.0439      22.5430
      270.880  2.87479e-08      58.0429      22.5390
      270.885  2.87427e-08      58.0420      22.5350
      270.890  2.87375e-08      58.0410      22.5309
      270.895  2.87324e-08      58.0401      22.5269
      270.900  2.87272e-08      58.0391      22.5228
      270.905  2.87221e-08      58.0382      22.5188
      270.910  2.87170e-08      58.0372      22.5148
      270.915  2.87118e-08      58.0363      22.5107
      270.920  2.87066e-08      58.0353      22.5067
      270.925  2.87015e-08      58.0344      22.5027
      270.930  2.86964e-08      58.0334      22.4986
      270.935  2.86913e-08      58.0325      22.4946
      270.940  2.86861e-08      58.0315      22.4906
      270.945  2.86810e-08      58.0305      22.4865
      270.950  2.86758e-08      58.0296      22.4825
      270.955  2.86707e-08      58.0286      22.4785
      270.960  2.86656e-08      58.0277      22.4745
      270.965  2.86604e-08      58.0267      22.4705
      270.970  2.86553e-08      58.0258      22.4664
      270.975  2.86502e-08      58.0248      22.4624
      270.980  2.86451e-08      58.0239      22.4584
      270.985  2.86399e-08      58.0229      22.4544
      270.990  2.86348e-08      58.0220      22.4504
      270.995  2.86297e-08      58.0210      22.4463
      271.000  2.86246e-08      58.0201      22.4423
      271.005  2.86194e-08      58.0191      22.4383
      271.010  2.86143e-08      58.0182      22.4343
      271.015  2.86092e-08      58.0173      22.4303
      271.020  2.86041e-08      58.0163      22.4263
      271.025  2.85990e-08      58.0154      22.4223
      271.030  2.85939e-08      58.0144      22.4183
      271.035  2.85888e-08      58.0135      22.4143
      271.040  2.85837e-08      58.0125      22.4103
      271.045  2.85786e-08      58.0116      22.4063
      271.050  2.85735e-08      58.0106      22.4023
      271.055  2.85684e-08      58.0097      22.3983
      271.060  2.85633e-08      58.0087      22.3943
      271.065  2.85582e-08      58.0078      22.3903
      271.070  2.85530e-08      58.0068      22.3863
      271.075  2.85480e-08      58.0059      22.3823
      271.080  2.85429e-08      58.0050      22.3783
      271.085  2.85378e-08      58.0040      22.3743
      271.090  2.85327e-08      58.0031      22.3703
      271.095  2.85276e-08      58.0021      22.3663
      271.100  2.85225e-08      58.0012      22.3623
      271.105  2.85174e-08      58.0002      22.3583
      271.110  2.85124e-08      57.9993      22.3544
      271.115  2.85073e-08      57.9983      22.3504
      271.120  2.85022e-08      57.9974      22.3464
      271.125  2.84971e-08      57.9965      22.3424
      271.130  2.84920e-08      57.9955      22.3384
      271.135  2.84869e-08      57.9946      22.3344
      271.140  2.84818e-08      57.9936      22.3304
      271.145  2.84768e-08      57.9927      22.3265
      271.150  2.84717e-08      57.9918      22.3225
      271.155  2.84666e-08      57.9908      22.3185
      271.160  2.84616e-08      57.9899      22.3145
      271.165  2.84565e-08      57.9889      22.3106
      271.170  2.84514e-08      57.9880      22.3066
      271.175  2.84464e-08      57.9871      22.3026
      271.180  2.84413e-08      57.9861      22.2987
      271.185  2.84363e-08      57.9852      22.2947
      271.190  2.84312e-08      57.9842      22.2907
      271.195  2.84261e-08      57.9833      22.2867
      271.200  2.84211e-08      57.9824      22.2828
      271.205  2.84160e-08      57.9814      22.2788
      271.210  2.84110e-08      57.9805      22.2749
      271.215  2.84059e-08      57.9796      22.2709
      271.220  2.84009e-08      57.9786      22.2669
      271.225  2.83958e-08      57.9777      22.2630
      271.230  2.83908e-08      57.9767      22.2590
      271.235  2.83857e-08      57.9758      22.2551
      271.240  2.83807e-08      57.9749      22.2511
      271.245  2.83756e-08      57.9739      22.2472
      271.250  2.83706e-08      57.9730      22.2432
      271.255  2.83656e-08      57.9721      22.2393
      271.260  2.83605e-08      57.9711      22.2353
      271.265  2.83555e-08      57.9702      22.2314
      271.270  2.83505e-08      57.9693      22.2274
      271.275  2.83454e-08      57.9683      22.2235
      271.280  2.83404e-08      57.9674      22.2195
      271.285  2.83354e-08      57.9665      22.2156
      271.290  2.83303e-08      57.9655      22.2116
      271.295  2.83253e-08      57.9646      22.2077
      271.300  2.83203e-08      57.9637      22.2038
      271.305  2.83153e-08      57.9627      22.1998
      271.310  2.83102e-08      57.9618      22.1959
      271.315  2.83052e-08      57.9609      22.1920
      271.320  2.83002e-08      57.9599      22.1880
      271.325  2.82952e-08      57.9590      22.1841
      271.330  2.82902e-08      57.9581      22.1802
      271.335  2.82852e-08      57.9571      22.1762
      271.340  2.82801e-08      57.9562      22.1723
      271.345  2.82751e-08      57.9553      22.1684
      271.350  2.82701e-08      57.9544      22.1644
      271.355  2.82651e-08      57.9534      22.1605
      271.360  2.82601e-08      57.9525      22.1566
      271.365  2.82551e-08      57.9516      22.1527
      271.370  2.82501e-08      57.9506      22.1487
      271.375  2.82451e-08      57.9497      22.1448
      271.380  2.82401e-08      57.9488      22.1409
      271.385  2.82351e-08      57.9479      22.1370
      271.390  2.82301e-08      57.9469      22.1331
      271.395  2.82251e-08      57.9460      22.1292
      271.400  2.82201e-08      57.9451      22.1252
      271.405  2.82151e-08      57.9442      22.1213
      271.410  2.82101e-08      57.9432      22.1174
      271.415  2.82051e-08      57.9423      22.1135
      271.420  2.82002e-08      57.9414      22.1096
      271.425  2.81952e-08      57.9405      22.1057
      271.430  2.81902e-08      57.9395      22.1018
      271.435  2.81852e-08      57.9386      22.0979
      271.440  2.81802e-08      57.9377      22.0940
      271.445  2.81752e-08      57.9367      22.0900
      271.450  2.81703e-08      57.9358      22.0861
      271.455  2.81653e-08      57.9349      22.0823
      271.460  2.81603e-08      57.9340      22.0784
      271.465  2.81554e-08      57.9331      22.0745
      271.470  2.81504e-08      57.9321      22.0706
      271.475  2.81454e-08      57.9312      22.0667
      271.480  2.81404e-08      57.9303      22.0628
      271.485  2.81355e-08      57.9294      22.0589
      271.490  2.81305e-08      57.9284      22.0550
      271.495  2.81255e-08      57.9275      22.0511
      271.500  2.81206e-08      57.9266      22.0472
      271.505  2.81156e-08      57.9257      22.0433
      271.510  2.81107e-08      57.9248      22.0394
      271.515  2.81057e-08      57.9238      22.0355
      271.520  2.81008e-08      57.9229      22.0317
      271.525  2.80958e-08      57.9220      22.0278
      271.530  2.80908e-08      57.9211      22.0239
      271.535  2.80859e-08      57.9202      22.0200
      271.540  2.80809e-08      57.9192      22.0161
      271.545  2.80760e-08      57.9183      22.0122
      271.550  2.80711e-08      57.9174      22.0084
      271.555  2.80661e-08      57.9165      22.0045
      271.560  2.80612e-08      57.9156      22.0006
      271.565  2.80562e-08      57.9147      21.9967
      271.570  2.80513e-08      57.9137      21.9928
      271.575  2.80463e-08      57.9128      21.9890
      271.580  2.80414e-08      57.9119      21.9851
      271.585  2.80365e-08      57.9110      21.9812
      271.590  2.80315e-08      57.9101      21.9774
      271.595  2.80266e-08      57.9092      21.9735
      271.600  2.80217e-08      57.9082      21.9696
      271.605  2.80167e-08      57.9073      21.9658
      271.610  2.80118e-08      57.9064      21.9619
      271.615  2.80069e-08      57.9055      21.9580
      271.620  2.80019e-08      57.9046      21.9542
      271.625  2.79970e-08      57.9037      21.9503
      271.630  2.79921e-08      57.9027      21.9465
      271.635  2.79872e-08      57.9018      21.9426
      271.640  2.79823e-08      57.9009      21.9387
      271.645  2.79774e-08      57.9000      21.9349
      271.650  2.79724e-08      57.8991      21.9310
      271.655  2.79675e-08      57.8982      21.9272
      271.660  2.79626e-08      57.8973      21.9233
      271.665  2.79577e-08      57.8964      21.9195
      271.670  2.79528e-08      57.8954      21.9156
      271.675  2.79479e-08      57.8945      21.9118
      271.680  2.79430e-08      57.8936      21.9079
      271.685  2.79381e-08      57.8927      21.9041
      271.690  2.79332e-08      57.8918      21.9002
      271.695  2.79282e-08      57.8909      21.8964
      271.700  2.79233e-08      57.8900      21.8926
      271.705  2.79185e-08      57.8891      21.8887
      271.710  2.79136e-08      57.8882      21.8849
      271.715  2.79087e-08      57.8873      21.8810
      271.720  2.79037e-08      57.8863      21.8772
      271.725  2.78989e-08      57.8854      21.8734
      271.730  2.78940e-08      57.8845      21.8695
      271.735  2.78891e-08      57.8836      21.8657
      271.740  2.78842e-08      57.8827      21.8619
      271.745  2.78793e-08      57.8818      21.8580
      271.750  2.78744e-08      57.8809      21.8542
      271.755  2.78695e-08      57.8800      21.8504
      271.760  2.78647e-08      57.8791      21.8465
      271.765  2.78598e-08      57.8782      21.8427
      271.770  2.78549e-08      57.8773      21.8389
      271.775  2.78500e-08      57.8764      21.8351
      271.780  2.78451e-08      57.8755      21.8312
      271.785  2.78403e-08      57.8745      21.8274
      271.790  2.78354e-08      57.8736      21.8236
      271.795  2.78305e-08      57.8727      21.8198
      271.800  2.78257e-08      57.8718      21.8160
      271.805  2.78208e-08      57.8709      21.8121
      271.810  2.78159e-08      57.8700      21.8083
      271.815  2.78110e-08      57.8691      21.8045
      271.820  2.78062e-08      57.8682      21.8007
      271.825  2.78013e-08      57.8673      21.7969
      271.830  2.77965e-08      57.8664      21.7931
      271.835  2.77916e-08      57.8655      21.7893
      271.840  2.77867e-08      57.8646      21.7855
      271.845  2.77819e-08      57.8637      21.7816
      271.850  2.77770e-08      57.8628      21.7778
      271.855  2.77722e-08      57.8619      21.7740
      271.860  2.77673e-08      57.8610      21.7702
